# == pyFAI calibration ==
# Distance Sample to Detector: 0.15 m
# PONI: 5.750e-03, 5.750e-03 m
# Rotations: 0.000000 0.000000 0.000000 rad
# 
# == Fit2d calibration ==
# Distance Sample-beamCenter: 150.000 mm
# Center: x=71.875, y=71.875 pix
# Tilt: 0.000 deg  TiltPlanRot: 0.000 deg
# 
# Detector Detector	 Spline= None	 PixelSize= 8.000e-05, 8.000e-05 m
#    Detector has a mask: False 
#    Detector has a dark current: False 
#    detector has a flat field: False 
# 
# Wavelength: 2.5079e-12 m
# Mask applied: provided
# Dark current applied: False
# Flat field applied: False
# Polarization factor: 0.99
# Normalization factor: 1.0
# --> tmp.chi
#        q_A^-1             I 
  9.981755e-02    1.304948e+02
  2.994527e-01    1.488427e+02
  4.990878e-01    1.495578e+02
  6.987229e-01    1.484373e+02
  8.983580e-01    1.544635e+02
  1.097993e+00    1.520028e+02
  1.297628e+00    1.471011e+02
  1.497263e+00    1.435143e+02
  1.696898e+00    1.439515e+02
  1.896534e+00    1.466622e+02
  2.096169e+00    1.507063e+02
  2.295804e+00    1.535524e+02
  2.495439e+00    1.530532e+02
  2.695074e+00    1.512913e+02
  2.894709e+00    1.494863e+02
  3.094344e+00    1.509781e+02
  3.293979e+00    1.530049e+02
  3.493614e+00    1.496717e+02
  3.693250e+00    1.470957e+02
  3.892885e+00    1.474062e+02
  4.092520e+00    1.472065e+02
  4.292155e+00    1.451946e+02
  4.491790e+00    1.478821e+02
  4.691425e+00    1.517587e+02
  4.891060e+00    1.513734e+02
  5.090695e+00    1.498758e+02
  5.290330e+00    1.490219e+02
  5.489965e+00    1.491542e+02
  5.689601e+00    1.487402e+02
  5.889236e+00    1.501600e+02
  6.088871e+00    1.538048e+02
  6.288506e+00    1.560714e+02
  6.488141e+00    1.614279e+02
  6.687776e+00    1.608224e+02
  6.887411e+00    1.606005e+02
  7.087046e+00    1.591442e+02
  7.286681e+00    1.630034e+02
  7.486317e+00    1.646659e+02
  7.685952e+00    1.659507e+02
  7.885587e+00    1.638443e+02
  8.085222e+00    1.648039e+02
  8.284857e+00    1.645935e+02
  8.484492e+00    1.660108e+02
  8.684127e+00    1.676639e+02
  8.883762e+00    1.706836e+02
  9.083397e+00    1.718508e+02
  9.283033e+00    1.711567e+02
  9.482668e+00    1.736741e+02
  9.682303e+00    1.758019e+02
  9.881938e+00    1.740326e+02
  1.008157e+01    1.713424e+02
  1.028121e+01    1.708381e+02
  1.048084e+01    1.721806e+02
  1.068048e+01    1.754851e+02
  1.088011e+01    1.761758e+02
  1.107975e+01    1.750715e+02
  1.127938e+01    1.750916e+02
  1.147902e+01    1.758949e+02
  1.167865e+01    1.776577e+02
  1.187829e+01    1.789207e+02
  1.207792e+01    1.796516e+02
  1.227756e+01    1.796460e+02
  1.247719e+01    1.796270e+02
  1.267683e+01    1.801954e+02
  1.287646e+01    1.771780e+02
  1.307610e+01    1.825207e+02
  1.327573e+01    1.848920e+02
  1.347537e+01    1.850309e+02
  1.367500e+01    1.826262e+02
  1.387464e+01    1.809922e+02
  1.407428e+01    1.833357e+02
  1.427391e+01    1.825089e+02
  1.447355e+01    1.839097e+02
  1.467318e+01    1.841749e+02
  1.487282e+01    1.872770e+02
  1.507245e+01    1.866490e+02
  1.527209e+01    1.864744e+02
  1.547172e+01    1.868649e+02
  1.567136e+01    1.873016e+02
  1.587099e+01    1.889143e+02
  1.607063e+01    1.889884e+02
  1.627026e+01    1.885068e+02
  1.646990e+01    1.908416e+02
  1.666953e+01    1.885149e+02
  1.686917e+01    1.905798e+02
  1.706880e+01    1.947800e+02
  1.726844e+01    1.938079e+02
  1.746807e+01    1.928783e+02
  1.766771e+01    1.941548e+02
  1.786734e+01    1.940211e+02
  1.806698e+01    1.949432e+02
  1.826661e+01    1.953792e+02
  1.846625e+01    1.943583e+02
  1.866588e+01    1.961705e+02
  1.886552e+01    1.993222e+02
  1.906515e+01    1.998775e+02
  1.926479e+01    2.010193e+02
  1.946442e+01    1.988538e+02
  1.966406e+01    2.007014e+02
  1.986369e+01    2.018670e+02
  2.006333e+01    2.015797e+02
  2.026296e+01    2.018646e+02
  2.046260e+01    2.005992e+02
  2.066223e+01    2.009637e+02
  2.086187e+01    2.040135e+02
  2.106150e+01    2.037531e+02
  2.126114e+01    2.033929e+02
  2.146077e+01    2.039057e+02
  2.166041e+01    2.058412e+02
  2.186004e+01    2.078725e+02
  2.205968e+01    2.085551e+02
  2.225931e+01    2.098257e+02
  2.245895e+01    2.096958e+02
  2.265858e+01    2.096889e+02
  2.285822e+01    2.105414e+02
  2.305786e+01    2.106325e+02
  2.325749e+01    2.107694e+02
  2.345713e+01    2.107422e+02
  2.365676e+01    2.088921e+02
  2.385640e+01    2.098709e+02
  2.405603e+01    2.128177e+02
  2.425567e+01    2.136191e+02
  2.445530e+01    2.147674e+02
  2.465494e+01    2.143182e+02
  2.485457e+01    2.155515e+02
  2.505421e+01    2.170555e+02
  2.525384e+01    2.202049e+02
  2.545348e+01    2.187296e+02
  2.565311e+01    2.183884e+02
  2.585275e+01    2.182099e+02
  2.605238e+01    2.208474e+02
  2.625202e+01    2.221280e+02
  2.645165e+01    2.225464e+02
  2.665129e+01    2.244166e+02
  2.685092e+01    2.213224e+02
  2.705056e+01    2.196385e+02
  2.725019e+01    2.204866e+02
  2.744983e+01    2.212955e+02
  2.764946e+01    2.214855e+02
  2.784910e+01    2.204162e+02
  2.804873e+01    2.231379e+02
  2.824837e+01    2.240383e+02
  2.844800e+01    2.255927e+02
  2.864764e+01    2.269368e+02
  2.884727e+01    2.288469e+02
  2.904691e+01    2.290270e+02
  2.924654e+01    2.304774e+02
  2.944618e+01    2.307508e+02
  2.964581e+01    2.293810e+02
  2.984545e+01    2.300753e+02
  3.004508e+01    2.313426e+02
  3.024472e+01    2.322598e+02
  3.044435e+01    2.343004e+02
  3.064399e+01    2.314534e+02
  3.084362e+01    2.316543e+02
  3.104326e+01    2.338402e+02
  3.124289e+01    2.342937e+02
  3.144253e+01    2.332839e+02
  3.164216e+01    2.332503e+02
  3.184180e+01    2.355286e+02
  3.204143e+01    2.356809e+02
  3.224107e+01    2.356457e+02
  3.244071e+01    2.368269e+02
  3.264034e+01    2.356624e+02
  3.283998e+01    2.352350e+02
  3.303961e+01    2.374867e+02
  3.323925e+01    2.400275e+02
  3.343888e+01    2.408485e+02
  3.363852e+01    2.411364e+02
  3.383815e+01    2.418274e+02
  3.403779e+01    2.438644e+02
  3.423742e+01    2.431957e+02
  3.443706e+01    2.408313e+02
  3.463669e+01    2.443453e+02
  3.483633e+01    2.452856e+02
  3.503596e+01    2.466467e+02
  3.523560e+01    2.466336e+02
  3.543523e+01    2.461079e+02
  3.563487e+01    2.451874e+02
  3.583450e+01    2.484094e+02
  3.603414e+01    2.501582e+02
  3.623377e+01    2.509491e+02
  3.643341e+01    2.525323e+02
  3.663304e+01    2.512883e+02
  3.683268e+01    2.495090e+02
  3.703231e+01    2.491041e+02
  3.723195e+01    2.508266e+02
  3.743158e+01    2.495108e+02
  3.763122e+01    2.522636e+02
  3.783085e+01    2.540714e+02
  3.803049e+01    2.535977e+02
  3.823012e+01    2.550496e+02
  3.842976e+01    2.535135e+02
  3.862939e+01    2.549893e+02
  3.882903e+01    2.558874e+02
  3.902866e+01    2.541425e+02
  3.922830e+01    2.547939e+02
  3.942793e+01    2.575768e+02
  3.962757e+01    2.581896e+02
  3.982720e+01    2.576418e+02
  4.002684e+01    2.569578e+02
  4.022647e+01    2.594905e+02
  4.042611e+01    2.614697e+02
  4.062574e+01    2.611342e+02
  4.082538e+01    2.602859e+02
  4.102501e+01    2.611360e+02
  4.122465e+01    2.619542e+02
  4.142428e+01    2.623426e+02
  4.162392e+01    2.641744e+02
  4.182356e+01    2.643749e+02
  4.202319e+01    2.668247e+02
  4.222283e+01    2.655995e+02
  4.242246e+01    2.680596e+02
  4.262210e+01    2.677054e+02
  4.282173e+01    2.675346e+02
  4.302137e+01    2.681442e+02
  4.322100e+01    2.713803e+02
  4.342064e+01    2.701457e+02
  4.362027e+01    2.702680e+02
  4.381991e+01    2.704241e+02
  4.401954e+01    2.711833e+02
  4.421918e+01    2.730226e+02
  4.441881e+01    2.758435e+02
  4.461845e+01    2.756306e+02
  4.481808e+01    2.750053e+02
  4.501772e+01    2.765580e+02
  4.521735e+01    2.789183e+02
  4.541699e+01    2.781183e+02
  4.561662e+01    2.780804e+02
  4.581626e+01    2.782023e+02
  4.601589e+01    2.781841e+02
  4.621553e+01    2.802576e+02
  4.641516e+01    2.801574e+02
  4.661480e+01    2.817517e+02
  4.681443e+01    2.834785e+02
  4.701407e+01    2.821690e+02
  4.721370e+01    2.838375e+02
  4.741334e+01    2.839149e+02
  4.761297e+01    2.856134e+02
  4.781261e+01    2.856755e+02
  4.801224e+01    2.864191e+02
  4.821188e+01    2.878296e+02
  4.841151e+01    2.897984e+02
  4.861115e+01    2.903244e+02
  4.881078e+01    2.880313e+02
  4.901042e+01    2.902274e+02
  4.921005e+01    2.926764e+02
  4.940969e+01    2.924627e+02
  4.960932e+01    2.934500e+02
  4.980896e+01    2.914947e+02
  5.000859e+01    2.904978e+02
  5.020823e+01    2.940400e+02
  5.040786e+01    2.959829e+02
  5.060750e+01    2.961642e+02
  5.080714e+01    2.973673e+02
  5.100677e+01    2.963327e+02
  5.120641e+01    2.965905e+02
  5.140604e+01    2.979991e+02
  5.160568e+01    3.006020e+02
  5.180531e+01    3.018810e+02
  5.200495e+01    3.031661e+02
  5.220458e+01    3.017567e+02
  5.240422e+01    3.002046e+02
  5.260385e+01    3.000534e+02
  5.280349e+01    3.042176e+02
  5.300312e+01    3.050426e+02
  5.320276e+01    3.045981e+02
  5.340239e+01    3.054648e+02
  5.360203e+01    3.049767e+02
  5.380166e+01    3.077249e+02
  5.400130e+01    3.100543e+02
  5.420093e+01    3.088185e+02
  5.440057e+01    3.090632e+02
  5.460020e+01    3.103989e+02
  5.479984e+01    3.106099e+02
  5.499947e+01    3.115461e+02
  5.519911e+01    3.111351e+02
  5.539874e+01    3.112436e+02
  5.559838e+01    3.126614e+02
  5.579801e+01    3.153962e+02
  5.599765e+01    3.153791e+02
  5.619728e+01    3.152909e+02
  5.639692e+01    3.166602e+02
  5.659655e+01    3.197361e+02
  5.679619e+01    3.188857e+02
  5.699582e+01    3.179958e+02
  5.719546e+01    3.185766e+02
  5.739509e+01    3.192834e+02
  5.759473e+01    3.201972e+02
  5.779436e+01    3.221708e+02
  5.799400e+01    3.246871e+02
  5.819363e+01    3.257499e+02
  5.839327e+01    3.258445e+02
  5.859290e+01    3.277142e+02
  5.879254e+01    3.254870e+02
  5.899217e+01    3.248430e+02
  5.919181e+01    3.258503e+02
  5.939144e+01    3.254507e+02
  5.959108e+01    3.264688e+02
  5.979071e+01    3.268124e+02
  5.999035e+01    3.285900e+02
  6.018999e+01    3.307946e+02
  6.038962e+01    3.327885e+02
  6.058926e+01    3.338257e+02
  6.078889e+01    3.338008e+02
  6.098853e+01    3.339941e+02
  6.118816e+01    3.362912e+02
  6.138780e+01    3.378988e+02
  6.158743e+01    3.387223e+02
  6.178707e+01    3.385740e+02
  6.198670e+01    3.379604e+02
  6.218634e+01    3.382374e+02
  6.238597e+01    3.410651e+02
  6.258561e+01    3.416366e+02
  6.278524e+01    3.418383e+02
  6.298488e+01    3.411780e+02
  6.318451e+01    3.409103e+02
  6.338415e+01    3.426307e+02
  6.358378e+01    3.455599e+02
  6.378342e+01    3.463318e+02
  6.398305e+01    3.471093e+02
  6.418269e+01    3.484507e+02
  6.438232e+01    3.489366e+02
  6.458196e+01    3.499407e+02
  6.478159e+01    3.516780e+02
  6.498123e+01    3.523304e+02
  6.518086e+01    3.513691e+02
  6.538050e+01    3.526219e+02
  6.558013e+01    3.516632e+02
  6.577977e+01    3.542901e+02
  6.597940e+01    3.563143e+02
  6.617904e+01    3.564050e+02
  6.637867e+01    3.582053e+02
  6.657831e+01    3.605130e+02
  6.677794e+01    3.592430e+02
  6.697758e+01    3.594739e+02
  6.717721e+01    3.591633e+02
  6.737685e+01    3.601484e+02
  6.757648e+01    3.602804e+02
  6.777612e+01    3.627956e+02
  6.797575e+01    3.657855e+02
  6.817539e+01    3.659338e+02
  6.837502e+01    3.655903e+02
  6.857466e+01    3.651566e+02
  6.877429e+01    3.658354e+02
  6.897393e+01    3.667553e+02
  6.917357e+01    3.672803e+02
  6.937320e+01    3.697822e+02
  6.957284e+01    3.708197e+02
  6.977247e+01    3.715989e+02
  6.997211e+01    3.743493e+02
  7.017174e+01    3.757430e+02
  7.037138e+01    3.751053e+02
  7.057101e+01    3.768394e+02
  7.077065e+01    3.779772e+02
  7.097028e+01    3.793958e+02
  7.116992e+01    3.800536e+02
  7.136955e+01    3.808120e+02
  7.156919e+01    3.817887e+02
  7.176882e+01    3.840091e+02
  7.196846e+01    3.833520e+02
  7.216809e+01    3.829036e+02
  7.236773e+01    3.852082e+02
  7.256736e+01    3.854563e+02
  7.276700e+01    3.852986e+02
  7.296663e+01    3.867836e+02
  7.316627e+01    3.873687e+02
  7.336590e+01    3.874088e+02
  7.356554e+01    3.894110e+02
  7.376517e+01    3.914282e+02
  7.396481e+01    3.924523e+02
  7.416444e+01    3.937696e+02
  7.436408e+01    3.966479e+02
  7.456371e+01    3.984237e+02
  7.476335e+01    3.995839e+02
  7.496298e+01    4.011681e+02
  7.516262e+01    4.019590e+02
  7.536225e+01    4.012641e+02
  7.556189e+01    4.022499e+02
  7.576152e+01    4.026825e+02
  7.596116e+01    4.034070e+02
  7.616079e+01    4.061770e+02
  7.636043e+01    4.077656e+02
  7.656006e+01    4.093055e+02
  7.675970e+01    4.085371e+02
  7.695933e+01    4.109810e+02
  7.715897e+01    4.105163e+02
  7.735860e+01    4.129785e+02
  7.755824e+01    4.151212e+02
  7.775787e+01    4.152436e+02
  7.795751e+01    4.179232e+02
  7.815714e+01    4.173631e+02
  7.835678e+01    4.168363e+02
  7.855642e+01    4.184009e+02
  7.875605e+01    4.195891e+02
  7.895569e+01    4.202398e+02
  7.915532e+01    4.226953e+02
  7.935496e+01    4.225958e+02
  7.955459e+01    4.240117e+02
  7.975423e+01    4.262849e+02
  7.995386e+01    4.276068e+02
  8.015350e+01    4.282388e+02
  8.035313e+01    4.302717e+02
  8.055277e+01    4.314956e+02
  8.075240e+01    4.323881e+02
  8.095204e+01    4.341111e+02
  8.115167e+01    4.350946e+02
  8.135131e+01    4.362648e+02
  8.155094e+01    4.355140e+02
  8.175058e+01    4.369139e+02
  8.195021e+01    4.399200e+02
  8.214985e+01    4.414083e+02
  8.234948e+01    4.437925e+02
  8.254912e+01    4.435911e+02
  8.274875e+01    4.441829e+02
  8.294839e+01    4.443256e+02
  8.314802e+01    4.471827e+02
  8.334766e+01    4.487739e+02
  8.354729e+01    4.505232e+02
  8.374693e+01    4.524113e+02
  8.394656e+01    4.538466e+02
  8.414620e+01    4.535665e+02
  8.434583e+01    4.535629e+02
  8.454547e+01    4.553132e+02
  8.474510e+01    4.593018e+02
  8.494474e+01    4.590949e+02
  8.514437e+01    4.616943e+02
  8.534401e+01    4.618269e+02
  8.554364e+01    4.630652e+02
  8.574328e+01    4.658840e+02
  8.594291e+01    4.673362e+02
  8.614255e+01    4.681501e+02
  8.634218e+01    4.690349e+02
  8.654182e+01    4.712552e+02
  8.674145e+01    4.733702e+02
  8.694109e+01    4.762874e+02
  8.714072e+01    4.758734e+02
  8.734036e+01    4.775081e+02
  8.753999e+01    4.791946e+02
  8.773963e+01    4.782149e+02
  8.793927e+01    4.790923e+02
  8.813890e+01    4.811202e+02
  8.833854e+01    4.849890e+02
  8.853817e+01    4.850704e+02
  8.873781e+01    4.856547e+02
  8.893744e+01    4.874737e+02
  8.913708e+01    4.889487e+02
  8.933671e+01    4.909385e+02
  8.953635e+01    4.943554e+02
  8.973598e+01    4.967227e+02
  8.993562e+01    4.976042e+02
  9.013525e+01    4.964535e+02
  9.033489e+01    4.996483e+02
  9.053452e+01    5.025153e+02
  9.073416e+01    5.036301e+02
  9.093379e+01    5.031067e+02
  9.113343e+01    5.038950e+02
  9.133306e+01    5.065922e+02
  9.153270e+01    5.093347e+02
  9.173233e+01    5.100664e+02
  9.193197e+01    5.123193e+02
  9.213160e+01    5.139437e+02
  9.233124e+01    5.159813e+02
  9.253087e+01    5.191235e+02
  9.273051e+01    5.200354e+02
  9.293014e+01    5.197040e+02
  9.312978e+01    5.229628e+02
  9.332941e+01    5.248909e+02
  9.352905e+01    5.260847e+02
  9.372868e+01    5.254264e+02
  9.392832e+01    5.294360e+02
  9.412795e+01    5.318947e+02
  9.432759e+01    5.343044e+02
  9.452722e+01    5.355168e+02
  9.472686e+01    5.371212e+02
  9.492649e+01    5.385900e+02
  9.512613e+01    5.411790e+02
  9.532576e+01    5.419307e+02
  9.552540e+01    5.415239e+02
  9.572503e+01    5.425062e+02
  9.592467e+01    5.437410e+02
  9.612430e+01    5.489609e+02
  9.632394e+01    5.519045e+02
  9.652357e+01    5.525192e+02
  9.672321e+01    5.538337e+02
  9.692285e+01    5.557502e+02
  9.712248e+01    5.571676e+02
  9.732212e+01    5.583674e+02
  9.752175e+01    5.619644e+02
  9.772139e+01    5.648427e+02
  9.792102e+01    5.654865e+02
  9.812066e+01    5.652987e+02
  9.832029e+01    5.691020e+02
  9.851993e+01    5.719254e+02
  9.871956e+01    5.742033e+02
  9.891920e+01    5.764437e+02
  9.911883e+01    5.776711e+02
  9.931847e+01    5.796912e+02
  9.951810e+01    5.820550e+02
  9.971774e+01    5.838991e+02
  9.991737e+01    5.842006e+02
  1.001170e+02    5.868746e+02
  1.003166e+02    5.888782e+02
  1.005163e+02    5.893736e+02
  1.007159e+02    5.914057e+02
  1.009155e+02    5.955161e+02
  1.011152e+02    5.964652e+02
  1.013148e+02    5.990784e+02
  1.015145e+02    6.006196e+02
  1.017141e+02    6.029462e+02
  1.019137e+02    6.049285e+02
  1.021134e+02    6.091697e+02
  1.023130e+02    6.111602e+02
  1.025126e+02    6.113306e+02
  1.027123e+02    6.126951e+02
  1.029119e+02    6.146107e+02
  1.031115e+02    6.187936e+02
  1.033112e+02    6.197010e+02
  1.035108e+02    6.189512e+02
  1.037104e+02    6.208012e+02
  1.039101e+02    6.228372e+02
  1.041097e+02    6.265790e+02
  1.043093e+02    6.286289e+02
  1.045090e+02    6.310526e+02
  1.047086e+02    6.321572e+02
  1.049082e+02    6.330288e+02
  1.051079e+02    6.358565e+02
  1.053075e+02    6.388187e+02
  1.055072e+02    6.407746e+02
  1.057068e+02    6.419031e+02
  1.059064e+02    6.454126e+02
  1.061061e+02    6.479473e+02
  1.063057e+02    6.507330e+02
  1.065053e+02    6.520482e+02
  1.067050e+02    6.545118e+02
  1.069046e+02    6.590098e+02
  1.071042e+02    6.604635e+02
  1.073039e+02    6.633953e+02
  1.075035e+02    6.661319e+02
  1.077031e+02    6.682108e+02
  1.079028e+02    6.674661e+02
  1.081024e+02    6.684905e+02
  1.083020e+02    6.710648e+02
  1.085017e+02    6.735148e+02
  1.087013e+02    6.760348e+02
  1.089010e+02    6.763365e+02
  1.091006e+02    6.790418e+02
  1.093002e+02    6.817569e+02
  1.094999e+02    6.839859e+02
  1.096995e+02    6.865854e+02
  1.098991e+02    6.871240e+02
  1.100988e+02    6.900644e+02
  1.102984e+02    6.923208e+02
  1.104980e+02    6.942293e+02
  1.106977e+02    6.954080e+02
  1.108973e+02    6.998605e+02
  1.110969e+02    7.040349e+02
  1.112966e+02    7.060156e+02
  1.114962e+02    7.087893e+02
  1.116958e+02    7.121645e+02
  1.118955e+02    7.149359e+02
  1.120951e+02    7.158621e+02
  1.122947e+02    7.163464e+02
  1.124944e+02    7.188923e+02
  1.126940e+02    7.235688e+02
  1.128937e+02    7.236699e+02
  1.130933e+02    7.259960e+02
  1.132929e+02    7.298364e+02
  1.134926e+02    7.330539e+02
  1.136922e+02    7.343260e+02
  1.138918e+02    7.361826e+02
  1.140915e+02    7.386714e+02
  1.142911e+02    7.391055e+02
  1.144907e+02    7.406122e+02
  1.146904e+02    7.425949e+02
  1.148900e+02    7.450107e+02
  1.150896e+02    7.467866e+02
  1.152893e+02    7.506445e+02
  1.154889e+02    7.540726e+02
  1.156885e+02    7.570902e+02
  1.158882e+02    7.563230e+02
  1.160878e+02    7.565646e+02
  1.162875e+02    7.599252e+02
  1.164871e+02    7.626528e+02
  1.166867e+02    7.644320e+02
  1.168864e+02    7.672451e+02
  1.170860e+02    7.700069e+02
  1.172856e+02    7.737150e+02
  1.174853e+02    7.749256e+02
  1.176849e+02    7.766425e+02
  1.178845e+02    7.800962e+02
  1.180842e+02    7.842734e+02
  1.182838e+02    7.854325e+02
  1.184834e+02    7.866630e+02
  1.186831e+02    7.902471e+02
  1.188827e+02    7.899027e+02
  1.190823e+02    7.926341e+02
  1.192820e+02    7.965386e+02
  1.194816e+02    7.991158e+02
  1.196812e+02    8.030670e+02
  1.198809e+02    8.042484e+02
  1.200805e+02    8.059955e+02
  1.202802e+02    8.087905e+02
  1.204798e+02    8.116644e+02
  1.206794e+02    8.157221e+02
  1.208791e+02    8.176664e+02
  1.210787e+02    8.166324e+02
  1.212783e+02    8.186066e+02
  1.214780e+02    8.221157e+02
  1.216776e+02    8.278331e+02
  1.218772e+02    8.302427e+02
  1.220769e+02    8.327887e+02
  1.222765e+02    8.334925e+02
  1.224761e+02    8.358152e+02
  1.226758e+02    8.391367e+02
  1.228754e+02    8.415733e+02
  1.230750e+02    8.447576e+02
  1.232747e+02    8.468840e+02
  1.234743e+02    8.510754e+02
  1.236739e+02    8.521119e+02
  1.238736e+02    8.546285e+02
  1.240732e+02    8.586619e+02
  1.242729e+02    8.610797e+02
  1.244725e+02    8.652780e+02
  1.246721e+02    8.647427e+02
  1.248718e+02    8.649678e+02
  1.250714e+02    8.678892e+02
  1.252710e+02    8.725967e+02
  1.254707e+02    8.735883e+02
  1.256703e+02    8.763291e+02
  1.258699e+02    8.819595e+02
  1.260696e+02    8.841240e+02
  1.262692e+02    8.862573e+02
  1.264688e+02    8.894927e+02
  1.266685e+02    8.914248e+02
  1.268681e+02    8.926544e+02
  1.270677e+02    8.969158e+02
  1.272674e+02    9.007134e+02
  1.274670e+02    9.022725e+02
  1.276667e+02    9.059014e+02
  1.278663e+02    9.104554e+02
  1.280659e+02    9.117612e+02
  1.282656e+02    9.145709e+02
  1.284652e+02    9.154180e+02
  1.286648e+02    9.208662e+02
  1.288645e+02    9.234910e+02
  1.290641e+02    9.249947e+02
  1.292637e+02    9.284205e+02
  1.294634e+02    9.328102e+02
  1.296630e+02    9.350947e+02
  1.298626e+02    9.390413e+02
  1.300623e+02    9.420192e+02
  1.302619e+02    9.438951e+02
  1.304615e+02    9.471981e+02
  1.306612e+02    9.511874e+02
  1.308608e+02    9.550549e+02
  1.310604e+02    9.584941e+02
  1.312601e+02    9.578273e+02
  1.314597e+02    9.591848e+02
  1.316594e+02    9.656574e+02
  1.318590e+02    9.692637e+02
  1.320586e+02    9.729742e+02
  1.322583e+02    9.769842e+02
  1.324579e+02    9.838458e+02
  1.326575e+02    9.864947e+02
  1.328572e+02    9.861573e+02
  1.330568e+02    9.910429e+02
  1.332564e+02    9.934192e+02
  1.334561e+02    9.963433e+02
  1.336557e+02    9.996766e+02
  1.338553e+02    1.000535e+03
  1.340550e+02    1.005825e+03
  1.342546e+02    1.010047e+03
  1.344542e+02    1.014856e+03
  1.346539e+02    1.019002e+03
  1.348535e+02    1.022240e+03
  1.350532e+02    1.024671e+03
  1.352528e+02    1.027109e+03
  1.354524e+02    1.031041e+03
  1.356521e+02    1.032277e+03
  1.358517e+02    1.036877e+03
  1.360513e+02    1.043049e+03
  1.362510e+02    1.048216e+03
  1.364506e+02    1.050995e+03
  1.366502e+02    1.052699e+03
  1.368499e+02    1.057199e+03
  1.370495e+02    1.061335e+03
  1.372491e+02    1.062179e+03
  1.374488e+02    1.070601e+03
  1.376484e+02    1.074893e+03
  1.378480e+02    1.078309e+03
  1.380477e+02    1.080817e+03
  1.382473e+02    1.085670e+03
  1.384469e+02    1.089457e+03
  1.386466e+02    1.092009e+03
  1.388462e+02    1.095619e+03
  1.390459e+02    1.102098e+03
  1.392455e+02    1.107693e+03
  1.394451e+02    1.109570e+03
  1.396448e+02    1.112029e+03
  1.398444e+02    1.117431e+03
  1.400440e+02    1.121384e+03
  1.402437e+02    1.126733e+03
  1.404433e+02    1.133378e+03
  1.406429e+02    1.137190e+03
  1.408426e+02    1.139410e+03
  1.410422e+02    1.144100e+03
  1.412418e+02    1.148677e+03
  1.414415e+02    1.153623e+03
  1.416411e+02    1.158037e+03
  1.418407e+02    1.163647e+03
  1.420404e+02    1.166245e+03
  1.422400e+02    1.171632e+03
  1.424396e+02    1.177285e+03
  1.426393e+02    1.182061e+03
  1.428389e+02    1.183090e+03
  1.430386e+02    1.190099e+03
  1.432382e+02    1.194169e+03
  1.434378e+02    1.199757e+03
  1.436375e+02    1.203313e+03
  1.438371e+02    1.206028e+03
  1.440367e+02    1.212816e+03
  1.442364e+02    1.216113e+03
  1.444360e+02    1.222035e+03
  1.446356e+02    1.228334e+03
  1.448353e+02    1.232605e+03
  1.450349e+02    1.240972e+03
  1.452345e+02    1.246111e+03
  1.454342e+02    1.248163e+03
  1.456338e+02    1.250872e+03
  1.458334e+02    1.258124e+03
  1.460331e+02    1.262990e+03
  1.462327e+02    1.268883e+03
  1.464324e+02    1.271202e+03
  1.466320e+02    1.278701e+03
  1.468316e+02    1.286530e+03
  1.470313e+02    1.290508e+03
  1.472309e+02    1.295051e+03
  1.474305e+02    1.297806e+03
  1.476302e+02    1.303605e+03
  1.478298e+02    1.309921e+03
  1.480294e+02    1.319679e+03
  1.482291e+02    1.324431e+03
  1.484287e+02    1.328008e+03
  1.486283e+02    1.331607e+03
  1.488280e+02    1.339753e+03
  1.490276e+02    1.345333e+03
  1.492272e+02    1.352256e+03
  1.494269e+02    1.357915e+03
  1.496265e+02    1.362650e+03
  1.498261e+02    1.368463e+03
  1.500258e+02    1.376650e+03
  1.502254e+02    1.382552e+03
  1.504251e+02    1.385392e+03
  1.506247e+02    1.391287e+03
  1.508243e+02    1.400407e+03
  1.510240e+02    1.410162e+03
  1.512236e+02    1.414472e+03
  1.514232e+02    1.421011e+03
  1.516229e+02    1.425179e+03
  1.518225e+02    1.432118e+03
  1.520221e+02    1.439972e+03
  1.522218e+02    1.447263e+03
  1.524214e+02    1.450509e+03
  1.526210e+02    1.459366e+03
  1.528207e+02    1.464096e+03
  1.530203e+02    1.469521e+03
  1.532199e+02    1.478890e+03
  1.534196e+02    1.486509e+03
  1.536192e+02    1.492305e+03
  1.538189e+02    1.498111e+03
  1.540185e+02    1.506673e+03
  1.542181e+02    1.512351e+03
  1.544178e+02    1.518420e+03
  1.546174e+02    1.525042e+03
  1.548170e+02    1.533098e+03
  1.550167e+02    1.540388e+03
  1.552163e+02    1.547597e+03
  1.554159e+02    1.554491e+03
  1.556156e+02    1.562175e+03
  1.558152e+02    1.569245e+03
  1.560148e+02    1.577663e+03
  1.562145e+02    1.585229e+03
  1.564141e+02    1.590042e+03
  1.566137e+02    1.598275e+03
  1.568134e+02    1.606838e+03
  1.570130e+02    1.614850e+03
  1.572126e+02    1.620495e+03
  1.574123e+02    1.629913e+03
  1.576119e+02    1.635528e+03
  1.578116e+02    1.642100e+03
  1.580112e+02    1.652706e+03
  1.582108e+02    1.661990e+03
  1.584105e+02    1.667783e+03
  1.586101e+02    1.677473e+03
  1.588097e+02    1.684987e+03
  1.590094e+02    1.691870e+03
  1.592090e+02    1.699778e+03
  1.594086e+02    1.708434e+03
  1.596083e+02    1.716376e+03
  1.598079e+02    1.726060e+03
  1.600075e+02    1.734511e+03
  1.602072e+02    1.742029e+03
  1.604068e+02    1.750652e+03
  1.606064e+02    1.758634e+03
  1.608061e+02    1.764788e+03
  1.610057e+02    1.771618e+03
  1.612053e+02    1.780116e+03
  1.614050e+02    1.789746e+03
  1.616046e+02    1.797672e+03
  1.618043e+02    1.807449e+03
  1.620039e+02    1.813757e+03
  1.622035e+02    1.821807e+03
  1.624032e+02    1.828315e+03
  1.626028e+02    1.839531e+03
  1.628024e+02    1.853310e+03
  1.630021e+02    1.862203e+03
  1.632017e+02    1.868065e+03
  1.634013e+02    1.876473e+03
  1.636010e+02    1.888492e+03
  1.638006e+02    1.897104e+03
  1.640002e+02    1.904603e+03
  1.641999e+02    1.915409e+03
  1.643995e+02    1.921536e+03
  1.645991e+02    1.931946e+03
  1.647988e+02    1.942363e+03
  1.649984e+02    1.950821e+03
  1.651981e+02    1.959651e+03
  1.653977e+02    1.971570e+03
  1.655973e+02    1.981698e+03
  1.657970e+02    1.994838e+03
  1.659966e+02    2.001271e+03
  1.661962e+02    2.012332e+03
  1.663959e+02    2.020092e+03
  1.665955e+02    2.032677e+03
  1.667951e+02    2.041802e+03
  1.669948e+02    2.051731e+03
  1.671944e+02    2.064611e+03
  1.673940e+02    2.073125e+03
  1.675937e+02    2.080102e+03
  1.677933e+02    2.091962e+03
  1.679929e+02    2.106328e+03
  1.681926e+02    2.115064e+03
  1.683922e+02    2.124344e+03
  1.685918e+02    2.137080e+03
  1.687915e+02    2.149741e+03
  1.689911e+02    2.159356e+03
  1.691908e+02    2.167767e+03
  1.693904e+02    2.181379e+03
  1.695900e+02    2.193010e+03
  1.697897e+02    2.201857e+03
  1.699893e+02    2.214609e+03
  1.701889e+02    2.224790e+03
  1.703886e+02    2.236535e+03
  1.705882e+02    2.248222e+03
  1.707878e+02    2.258511e+03
  1.709875e+02    2.270548e+03
  1.711871e+02    2.278945e+03
  1.713867e+02    2.289171e+03
  1.715864e+02    2.300738e+03
  1.717860e+02    2.314380e+03
  1.719856e+02    2.325299e+03
  1.721853e+02    2.337586e+03
  1.723849e+02    2.351916e+03
  1.725846e+02    2.363307e+03
  1.727842e+02    2.373235e+03
  1.729838e+02    2.384800e+03
  1.731835e+02    2.396718e+03
  1.733831e+02    2.407886e+03
  1.735827e+02    2.420622e+03
  1.737824e+02    2.435481e+03
  1.739820e+02    2.441746e+03
  1.741816e+02    2.454071e+03
  1.743813e+02    2.471448e+03
  1.745809e+02    2.484351e+03
  1.747805e+02    2.495182e+03
  1.749802e+02    2.505625e+03
  1.751798e+02    2.516377e+03
  1.753794e+02    2.522534e+03
  1.755791e+02    2.536386e+03
  1.757787e+02    2.552832e+03
  1.759783e+02    2.566007e+03
  1.761780e+02    2.572628e+03
  1.763776e+02    2.587613e+03
  1.765773e+02    2.599015e+03
  1.767769e+02    2.611461e+03
  1.769765e+02    2.626071e+03
  1.771762e+02    2.642744e+03
  1.773758e+02    2.650385e+03
  1.775754e+02    2.661169e+03
  1.777751e+02    2.675945e+03
  1.779747e+02    2.689741e+03
  1.781743e+02    2.698473e+03
  1.783740e+02    2.711532e+03
  1.785736e+02    2.727609e+03
  1.787732e+02    2.738514e+03
  1.789729e+02    2.749780e+03
  1.791725e+02    2.768183e+03
  1.793721e+02    2.779632e+03
  1.795718e+02    2.792123e+03
  1.797714e+02    2.803930e+03
  1.799711e+02    2.818558e+03
  1.801707e+02    2.829516e+03
  1.803703e+02    2.842067e+03
  1.805700e+02    2.856265e+03
  1.807696e+02    2.869490e+03
  1.809692e+02    2.881421e+03
  1.811689e+02    2.895822e+03
  1.813685e+02    2.908812e+03
  1.815681e+02    2.920626e+03
  1.817678e+02    2.934589e+03
  1.819674e+02    2.947318e+03
  1.821670e+02    2.960961e+03
  1.823667e+02    2.974582e+03
  1.825663e+02    2.989510e+03
  1.827659e+02    3.003048e+03
  1.829656e+02    3.017328e+03
  1.831652e+02    3.031263e+03
  1.833648e+02    3.045424e+03
  1.835645e+02    3.060074e+03
  1.837641e+02    3.076731e+03
  1.839638e+02    3.089349e+03
  1.841634e+02    3.103349e+03
  1.843630e+02    3.118584e+03
  1.845627e+02    3.132397e+03
  1.847623e+02    3.148435e+03
  1.849619e+02    3.162785e+03
  1.851616e+02    3.181458e+03
  1.853612e+02    3.195339e+03
  1.855608e+02    3.207733e+03
  1.857605e+02    3.225062e+03
  1.859601e+02    3.241233e+03
  1.861597e+02    3.257335e+03
  1.863594e+02    3.272366e+03
  1.865590e+02    3.285498e+03
  1.867586e+02    3.307866e+03
  1.869583e+02    3.324025e+03
  1.871579e+02    3.343388e+03
  1.873575e+02    3.360596e+03
  1.875572e+02    3.374525e+03
  1.877568e+02    3.388629e+03
  1.879565e+02    3.408346e+03
  1.881561e+02    3.427704e+03
  1.883557e+02    3.443021e+03
  1.885554e+02    3.460966e+03
  1.887550e+02    3.479684e+03
  1.889546e+02    3.498574e+03
  1.891543e+02    3.520190e+03
  1.893539e+02    3.540178e+03
  1.895535e+02    3.554928e+03
  1.897532e+02    3.574352e+03
  1.899528e+02    3.596550e+03
  1.901524e+02    3.616146e+03
  1.903521e+02    3.635333e+03
  1.905517e+02    3.655104e+03
  1.907513e+02    3.673064e+03
  1.909510e+02    3.695582e+03
  1.911506e+02    3.718029e+03
  1.913503e+02    3.741628e+03
  1.915499e+02    3.763595e+03
  1.917495e+02    3.783520e+03
  1.919492e+02    3.809846e+03
  1.921488e+02    3.831851e+03
  1.923484e+02    3.851695e+03
  1.925481e+02    3.877691e+03
  1.927477e+02    3.906312e+03
  1.929473e+02    3.927990e+03
  1.931470e+02    3.948845e+03
  1.933466e+02    3.973533e+03
  1.935462e+02    4.001358e+03
  1.937459e+02    4.025632e+03
  1.939455e+02    4.051646e+03
  1.941451e+02    4.079872e+03
  1.943448e+02    4.110304e+03
  1.945444e+02    4.139733e+03
  1.947440e+02    4.168621e+03
  1.949437e+02    4.196908e+03
  1.951433e+02    4.224559e+03
  1.953430e+02    4.255855e+03
  1.955426e+02    4.290517e+03
  1.957422e+02    4.318833e+03
  1.959419e+02    4.347253e+03
  1.961415e+02    4.381374e+03
  1.963411e+02    4.417343e+03
  1.965408e+02    4.451779e+03
  1.967404e+02    4.483514e+03
  1.969400e+02    4.521151e+03
  1.971397e+02    4.558786e+03
  1.973393e+02    4.596565e+03
  1.975389e+02    4.635759e+03
  1.977386e+02    4.674723e+03
  1.979382e+02    4.713256e+03
  1.981378e+02    4.752506e+03
  1.983375e+02    4.795995e+03
  1.985371e+02    4.834633e+03
  1.987368e+02    4.879101e+03
  1.989364e+02    4.926625e+03
  1.991360e+02    4.964549e+03
  1.993357e+02    5.014051e+03
  1.995353e+02    5.055943e+03
  1.997349e+02    5.100698e+03
  1.999346e+02    5.152044e+03
  2.001342e+02    5.197808e+03
  2.003338e+02    5.241760e+03
  2.005335e+02    5.290754e+03
  2.007331e+02    5.341583e+03
  2.009327e+02    5.392634e+03
  2.011324e+02    5.439797e+03
  2.013320e+02    5.493783e+03
  2.015316e+02    5.543412e+03
  2.017313e+02    5.593890e+03
  2.019309e+02    5.646875e+03
  2.021305e+02    5.700963e+03
  2.023302e+02    5.750407e+03
  2.025298e+02    5.804877e+03
  2.027295e+02    5.856143e+03
  2.029291e+02    5.913311e+03
  2.031287e+02    5.966869e+03
  2.033284e+02    6.018316e+03
  2.035280e+02    6.073900e+03
  2.037276e+02    6.128882e+03
  2.039273e+02    6.185429e+03
  2.041269e+02    6.240994e+03
  2.043265e+02    6.294718e+03
  2.045262e+02    6.350605e+03
  2.047258e+02    6.405447e+03
  2.049254e+02    6.467154e+03
  2.051251e+02    6.521347e+03
  2.053247e+02    6.577843e+03
  2.055243e+02    6.630491e+03
  2.057240e+02    6.687457e+03
  2.059236e+02    6.738656e+03
  2.061232e+02    6.794358e+03
  2.063229e+02    6.851972e+03
  2.065225e+02    6.902621e+03
  2.067222e+02    6.959945e+03
  2.069218e+02    7.013165e+03
  2.071214e+02    7.067813e+03
  2.073211e+02    7.119871e+03
  2.075207e+02    7.177410e+03
  2.077203e+02    7.236094e+03
  2.079200e+02    7.281652e+03
  2.081196e+02    7.329768e+03
  2.083192e+02    7.386441e+03
  2.085189e+02    7.443311e+03
  2.087185e+02    7.493151e+03
  2.089181e+02    7.543647e+03
  2.091178e+02    7.590595e+03
  2.093174e+02    7.641592e+03
  2.095170e+02    7.698936e+03
  2.097167e+02    7.750820e+03
  2.099163e+02    7.801807e+03
  2.101160e+02    7.854744e+03
  2.103156e+02    7.898796e+03
  2.105152e+02    7.956267e+03
  2.107149e+02    8.008066e+03
  2.109145e+02    8.055944e+03
  2.111141e+02    8.106636e+03
  2.113138e+02    8.155865e+03
  2.115134e+02    8.205768e+03
  2.117130e+02    8.250803e+03
  2.119127e+02    8.302744e+03
  2.121123e+02    8.352644e+03
  2.123119e+02    8.401442e+03
  2.125116e+02    8.455959e+03
  2.127112e+02    8.506111e+03
  2.129108e+02    8.557606e+03
  2.131105e+02    8.612739e+03
  2.133101e+02    8.672368e+03
  2.135097e+02    8.721428e+03
  2.137094e+02    8.773312e+03
  2.139090e+02    8.827825e+03
  2.141087e+02    8.882775e+03
  2.143083e+02    8.934180e+03
  2.145079e+02    8.990723e+03
  2.147076e+02    9.051688e+03
  2.149072e+02    9.102455e+03
  2.151068e+02    9.164917e+03
  2.153065e+02    9.226401e+03
  2.155061e+02    9.279810e+03
  2.157057e+02    9.336087e+03
  2.159054e+02    9.396728e+03
  2.161050e+02    9.460353e+03
  2.163046e+02    9.518942e+03
  2.165043e+02    9.585273e+03
  2.167039e+02    9.644314e+03
  2.169035e+02    9.720160e+03
  2.171032e+02    9.775224e+03
  2.173028e+02    9.841837e+03
  2.175025e+02    9.904179e+03
  2.177021e+02    9.975065e+03
  2.179017e+02    1.004383e+04
  2.181014e+02    1.011396e+04
  2.183010e+02    1.018204e+04
  2.185006e+02    1.025882e+04
  2.187003e+02    1.032926e+04
  2.188999e+02    1.039855e+04
  2.190995e+02    1.047417e+04
  2.192992e+02    1.055590e+04
  2.194988e+02    1.063529e+04
  2.196984e+02    1.071884e+04
  2.198981e+02    1.079429e+04
  2.200977e+02    1.087840e+04
  2.202973e+02    1.097644e+04
  2.204970e+02    1.105358e+04
  2.206966e+02    1.115443e+04
  2.208962e+02    1.125176e+04
  2.210959e+02    1.134404e+04
  2.212955e+02    1.143511e+04
  2.214952e+02    1.154011e+04
  2.216948e+02    1.163846e+04
  2.218944e+02    1.175074e+04
  2.220941e+02    1.185664e+04
  2.222937e+02    1.197043e+04
  2.224933e+02    1.208973e+04
  2.226930e+02    1.221175e+04
  2.228926e+02    1.231532e+04
  2.230922e+02    1.244303e+04
  2.232919e+02    1.258077e+04
  2.234915e+02    1.270889e+04
  2.236911e+02    1.281658e+04
  2.238908e+02    1.289438e+04
  2.240904e+02    1.297270e+04
  2.242900e+02    1.304667e+04
  2.244897e+02    1.313134e+04
  2.246893e+02    1.322524e+04
  2.248889e+02    1.332885e+04
  2.250886e+02    1.343630e+04
  2.252882e+02    1.356246e+04
  2.254879e+02    1.367214e+04
  2.256875e+02    1.377775e+04
  2.258871e+02    1.392258e+04
  2.260868e+02    1.406932e+04
  2.262864e+02    1.422483e+04
  2.264860e+02    1.438578e+04
  2.266857e+02    1.454957e+04
  2.268853e+02    1.471957e+04
  2.270849e+02    1.489215e+04
  2.272846e+02    1.502473e+04
  2.274842e+02    1.516108e+04
  2.276838e+02    1.528995e+04
  2.278835e+02    1.539056e+04
  2.280831e+02    1.549514e+04
  2.282827e+02    1.560168e+04
  2.284824e+02    1.569146e+04
  2.286820e+02    1.576863e+04
  2.288817e+02    1.584692e+04
  2.290813e+02    1.588191e+04
  2.292809e+02    1.592095e+04
  2.294806e+02    1.595796e+04
  2.296802e+02    1.594766e+04
  2.298798e+02    1.596399e+04
  2.300795e+02    1.596734e+04
  2.302791e+02    1.593203e+04
  2.304787e+02    1.588339e+04
  2.306784e+02    1.586730e+04
  2.308780e+02    1.579489e+04
  2.310776e+02    1.561425e+04
  2.312773e+02    1.507591e+04
  2.314769e+02    1.471061e+04
  2.316765e+02    1.464951e+04
  2.318762e+02    1.464455e+04
  2.320758e+02    1.460425e+04
  2.322754e+02    1.444332e+04
  2.324751e+02    1.419974e+04
  2.326747e+02    1.397504e+04
  2.328744e+02    1.372563e+04
  2.330740e+02    1.351393e+04
  2.332736e+02    1.330550e+04
  2.334733e+02    1.309436e+04
  2.336729e+02    1.293198e+04
  2.338725e+02    1.291741e+04
  2.340722e+02    1.290147e+04
  2.342718e+02    1.288942e+04
  2.344714e+02    1.288346e+04
  2.346711e+02    1.285591e+04
  2.348707e+02    1.287047e+04
  2.350703e+02    1.286138e+04
  2.352700e+02    1.284630e+04
  2.354696e+02    1.284973e+04
  2.356692e+02    1.283689e+04
  2.358689e+02    1.282405e+04
  2.360685e+02    1.280830e+04
  2.362682e+02    1.279454e+04
  2.364678e+02    1.277213e+04
  2.366674e+02    1.272613e+04
  2.368671e+02    1.270133e+04
  2.370667e+02    1.268093e+04
  2.372663e+02    1.264889e+04
  2.374660e+02    1.261914e+04
  2.376656e+02    1.261788e+04
  2.378652e+02    1.263671e+04
  2.380649e+02    1.262818e+04
  2.382645e+02    1.261550e+04
  2.384641e+02    1.259797e+04
  2.386638e+02    1.259416e+04
  2.388634e+02    1.258723e+04
  2.390630e+02    1.254714e+04
  2.392627e+02    1.253779e+04
  2.394623e+02    1.254027e+04
  2.396619e+02    1.253174e+04
  2.398616e+02    1.248592e+04
  2.400612e+02    1.244392e+04
  2.402609e+02    1.241498e+04
  2.404605e+02    1.238832e+04
  2.406601e+02    1.234417e+04
  2.408598e+02    1.230565e+04
  2.410594e+02    1.228845e+04
  2.412590e+02    1.220824e+04
  2.414587e+02    1.215257e+04
  2.416583e+02    1.213749e+04
  2.418579e+02    1.212061e+04
  2.420576e+02    1.210401e+04
  2.422572e+02    1.214367e+04
  2.424568e+02    1.216087e+04
  2.426565e+02    1.216312e+04
  2.428561e+02    1.218814e+04
  2.430557e+02    1.220452e+04
  2.432554e+02    1.222805e+04
  2.434550e+02    1.224270e+04
  2.436546e+02    1.228214e+04
  2.438543e+02    1.231292e+04
  2.440539e+02    1.233820e+04
  2.442536e+02    1.239240e+04
  2.444532e+02    1.244815e+04
  2.446528e+02    1.248960e+04
  2.448525e+02    1.251670e+04
  2.450521e+02    1.256294e+04
  2.452517e+02    1.259108e+04
  2.454514e+02    1.263676e+04
  2.456510e+02    1.257943e+04
  2.458506e+02    1.249014e+04
  2.460503e+02    1.261198e+04
  2.462499e+02    1.258697e+04
  2.464495e+02    1.240773e+04
  2.466492e+02    1.222699e+04
  2.468488e+02    1.223742e+04
  2.470484e+02    1.258917e+04
  2.472481e+02    1.268100e+04
  2.474477e+02    1.265949e+04
  2.476474e+02    1.262266e+04
  2.478470e+02    1.258405e+04
  2.480466e+02    1.257086e+04
  2.482463e+02    1.254273e+04
  2.484459e+02    1.252054e+04
  2.486455e+02    1.251991e+04
  2.488452e+02    1.248211e+04
  2.490448e+02    1.243174e+04
  2.492444e+02    1.242818e+04
  2.494441e+02    1.243764e+04
  2.496437e+02    1.240728e+04
  2.498433e+02    1.233343e+04
  2.500430e+02    1.227141e+04
  2.502426e+02    1.231991e+04
  2.504422e+02    1.272025e+04
  2.506419e+02    1.267636e+04
  2.508415e+02    1.251571e+04
  2.510411e+02    1.246379e+04
  2.512408e+02    1.253476e+04
  2.514404e+02    1.265287e+04
  2.516401e+02    1.258127e+04
  2.518397e+02    1.238733e+04
  2.520393e+02    1.218071e+04
  2.522390e+02    1.196623e+04
  2.524386e+02    1.175189e+04
  2.526382e+02    1.153997e+04
  2.528379e+02    1.134536e+04
  2.530375e+02    1.113549e+04
  2.532371e+02    1.093449e+04
  2.534368e+02    1.075185e+04
  2.536364e+02    1.057131e+04
  2.538360e+02    1.039995e+04
  2.540357e+02    1.023869e+04
  2.542353e+02    1.007550e+04
  2.544349e+02    9.914004e+03
  2.546346e+02    9.760845e+03
  2.548342e+02    9.618044e+03
  2.550339e+02    9.473499e+03
  2.552335e+02    9.334698e+03
  2.554331e+02    9.201104e+03
  2.556328e+02    9.075768e+03
  2.558324e+02    8.955262e+03
  2.560320e+02    8.830887e+03
  2.562317e+02    8.716461e+03
  2.564313e+02    8.606064e+03
  2.566309e+02    8.506681e+03
  2.568306e+02    8.404577e+03
  2.570302e+02    8.300107e+03
  2.572298e+02    8.202425e+03
  2.574295e+02    8.109508e+03
  2.576291e+02    8.021599e+03
  2.578287e+02    7.934279e+03
  2.580284e+02    7.847807e+03
  2.582280e+02    7.765000e+03
  2.584276e+02    7.683775e+03
  2.586273e+02    7.609802e+03
  2.588269e+02    7.532511e+03
  2.590266e+02    7.463540e+03
  2.592262e+02    7.391244e+03
  2.594258e+02    7.326771e+03
  2.596255e+02    7.255203e+03
  2.598251e+02    7.191964e+03
  2.600247e+02    7.125742e+03
  2.602244e+02    7.063237e+03
  2.604240e+02    6.997828e+03
  2.606236e+02    6.929827e+03
  2.608233e+02    6.862098e+03
  2.610229e+02    6.793499e+03
  2.612225e+02    6.723048e+03
  2.614222e+02    6.647892e+03
  2.616218e+02    6.568898e+03
  2.618214e+02    6.486776e+03
  2.620211e+02    6.406749e+03
  2.622207e+02    6.315773e+03
  2.624203e+02    6.226553e+03
  2.626200e+02    6.129718e+03
  2.628196e+02    6.031024e+03
  2.630193e+02    5.926446e+03
  2.632189e+02    5.821331e+03
  2.634185e+02    5.710818e+03
  2.636182e+02    5.602984e+03
  2.638178e+02    5.490244e+03
  2.640174e+02    5.378343e+03
  2.642171e+02    5.264253e+03
  2.644167e+02    5.149399e+03
  2.646163e+02    5.037659e+03
  2.648160e+02    4.923907e+03
  2.650156e+02    4.814235e+03
  2.652152e+02    4.703300e+03
  2.654149e+02    4.596101e+03
  2.656145e+02    4.492909e+03
  2.658141e+02    4.390463e+03
  2.660138e+02    4.290484e+03
  2.662134e+02    4.198679e+03
  2.664131e+02    4.104394e+03
  2.666127e+02    4.021506e+03
  2.668123e+02    3.936406e+03
  2.670120e+02    3.859109e+03
  2.672116e+02    3.782712e+03
  2.674112e+02    3.712208e+03
  2.676109e+02    3.645215e+03
  2.678105e+02    3.580251e+03
  2.680101e+02    3.519045e+03
  2.682098e+02    3.461764e+03
  2.684094e+02    3.405681e+03
  2.686090e+02    3.357551e+03
  2.688087e+02    3.400413e+03
  2.690083e+02    3.399142e+03
  2.692079e+02    3.385265e+03
  2.694076e+02    3.501887e+03
  2.696072e+02    3.569352e+03
  2.698068e+02    3.607051e+03
  2.700065e+02    3.628528e+03
  2.702061e+02    3.644904e+03
  2.704058e+02    3.655629e+03
  2.706054e+02    3.663901e+03
  2.708050e+02    3.666894e+03
  2.710047e+02    3.670286e+03
  2.712043e+02    3.666736e+03
  2.714039e+02    3.660189e+03
  2.716036e+02    3.651702e+03
  2.718032e+02    3.644583e+03
  2.720028e+02    3.637743e+03
  2.722025e+02    3.627598e+03
  2.724021e+02    3.606901e+03
  2.726017e+02    3.584886e+03
  2.728014e+02    3.564720e+03
  2.730010e+02    3.544024e+03
  2.732006e+02    3.516492e+03
  2.734003e+02    3.494617e+03
  2.735999e+02    3.465289e+03
  2.737996e+02    3.431597e+03
  2.739992e+02    3.399097e+03
  2.741988e+02    3.366903e+03
  2.743985e+02    3.327861e+03
  2.745981e+02    3.286530e+03
  2.747977e+02    3.242326e+03
  2.749974e+02    3.204924e+03
  2.751970e+02    3.158899e+03
  2.753966e+02    3.395138e+03
  2.755963e+02    4.399155e+03
  2.757959e+02    4.499995e+03
  2.759955e+02    4.183883e+03
  2.761952e+02    4.027541e+03
  2.763948e+02    3.986035e+03
  2.765944e+02    3.941437e+03
  2.767941e+02    3.896975e+03
  2.769937e+02    3.845478e+03
  2.771933e+02    3.795515e+03
  2.773930e+02    3.739767e+03
  2.775926e+02    3.687769e+03
  2.777923e+02    3.638731e+03
  2.779919e+02    3.583104e+03
  2.781915e+02    3.898662e+03
  2.783912e+02    3.962672e+03
  2.785908e+02    3.642475e+03
  2.787904e+02    4.015508e+03
  2.789901e+02    3.888782e+03
  2.791897e+02    4.081354e+03
  2.793893e+02    4.163677e+03
  2.795890e+02    5.108452e+03
  2.797886e+02    4.202204e+03
  2.799882e+02    4.064253e+03
  2.801879e+02    3.558555e+03
  2.803875e+02    4.198980e+03
  2.805871e+02    3.059315e+03
  2.807868e+02    3.523986e+03
  2.809864e+02    3.584441e+03
  2.811861e+02    3.527323e+03
  2.813857e+02    3.835443e+03
  2.815853e+02    3.935663e+03
  2.817850e+02    3.793835e+03
  2.819846e+02    3.768361e+03
  2.821842e+02    3.091656e+03
  2.823839e+02    2.145212e+03
  2.825835e+02    1.628592e+03
  2.827831e+02    1.600435e+03
  2.829828e+02    1.573848e+03
  2.831824e+02    1.546419e+03
  2.833820e+02    1.518071e+03
  2.835817e+02    1.493908e+03
  2.837813e+02    1.468020e+03
  2.839809e+02    1.440468e+03
  2.841806e+02    1.417286e+03
  2.843802e+02    1.390324e+03
  2.845798e+02    1.360659e+03
  2.847795e+02    1.335073e+03
  2.849791e+02    1.306589e+03
  2.851788e+02    1.279069e+03
  2.853784e+02    1.247567e+03
  2.855780e+02    1.216258e+03
  2.857777e+02    1.184925e+03
  2.859773e+02    1.152491e+03
  2.861769e+02    1.123108e+03
  2.863766e+02    1.090544e+03
  2.865762e+02    1.058373e+03
  2.867758e+02    1.029421e+03
  2.869755e+02    9.990097e+02
  2.871751e+02    9.675705e+02
  2.873747e+02    9.405189e+02
  2.875744e+02    9.093181e+02
  2.877740e+02    8.818007e+02
  2.879736e+02    8.551505e+02
  2.881733e+02    8.338065e+02
  2.883729e+02    8.056625e+02
  2.885725e+02    7.841187e+02
  2.887722e+02    7.615153e+02
  2.889718e+02    7.398170e+02
  2.891715e+02    7.206129e+02
  2.893711e+02    6.997650e+02
  2.895707e+02    6.813018e+02
  2.897704e+02    6.632562e+02
  2.899700e+02    6.451385e+02
  2.901696e+02    6.265309e+02
  2.903693e+02    6.126499e+02
  2.905689e+02    5.925487e+02
  2.907685e+02    5.736619e+02
  2.909682e+02    5.607847e+02
  2.911678e+02    5.433251e+02
  2.913674e+02    5.274248e+02
  2.915671e+02    5.127352e+02
  2.917667e+02    4.950765e+02
  2.919663e+02    4.823511e+02
  2.921660e+02    4.640681e+02
  2.923656e+02    4.515504e+02
  2.925653e+02    4.343157e+02
  2.927649e+02    4.246504e+02
  2.929645e+02    4.057810e+02
  2.931642e+02    3.895601e+02
  2.933638e+02    3.628598e+02
