# == pyFAI calibration ==
# Distance Sample to Detector: 0.15 m
# PONI: 5.750e-03, 5.750e-03 m
# Rotations: 0.000000 0.000000 0.000000 rad
# 
# == Fit2d calibration ==
# Distance Sample-beamCenter: 150.000 mm
# Center: x=71.875, y=71.875 pix
# Tilt: 0.000 deg  TiltPlanRot: 0.000 deg
# 
# Detector Detector	 Spline= None	 PixelSize= 8.000e-05, 8.000e-05 m
#    Detector has a mask: False 
#    Detector has a dark current: False 
#    detector has a flat field: False 
# 
# Wavelength: 2.5079e-12 m
# Mask applied: provided
# Dark current applied: False
# Flat field applied: False
# Polarization factor: 0.99
# Normalization factor: 1.0
# --> tmp.chi
#        q_A^-1             I 
  9.981755e-02    1.890851e+02
  2.994527e-01    1.906081e+02
  4.990878e-01    1.973920e+02
  6.987229e-01    2.008750e+02
  8.983580e-01    1.952565e+02
  1.097993e+00    1.949038e+02
  1.297628e+00    1.980316e+02
  1.497263e+00    1.998915e+02
  1.696898e+00    2.065265e+02
  1.896534e+00    2.010894e+02
  2.096169e+00    2.027350e+02
  2.295804e+00    2.033073e+02
  2.495439e+00    2.056879e+02
  2.695074e+00    2.033224e+02
  2.894709e+00    2.008299e+02
  3.094344e+00    2.035442e+02
  3.293979e+00    2.000809e+02
  3.493614e+00    2.004461e+02
  3.693250e+00    2.021097e+02
  3.892885e+00    2.021314e+02
  4.092520e+00    2.010486e+02
  4.292155e+00    2.006026e+02
  4.491790e+00    1.990909e+02
  4.691425e+00    1.991187e+02
  4.891060e+00    2.003084e+02
  5.090695e+00    2.006130e+02
  5.290330e+00    2.013083e+02
  5.489965e+00    2.018513e+02
  5.689601e+00    1.998611e+02
  5.889236e+00    1.988410e+02
  6.088871e+00    2.012759e+02
  6.288506e+00    2.007479e+02
  6.488141e+00    2.028908e+02
  6.687776e+00    2.043906e+02
  6.887411e+00    2.060289e+02
  7.087046e+00    2.071290e+02
  7.286681e+00    2.099091e+02
  7.486317e+00    2.089815e+02
  7.685952e+00    2.106781e+02
  7.885587e+00    2.126456e+02
  8.085222e+00    2.155203e+02
  8.284857e+00    2.141584e+02
  8.484492e+00    2.139177e+02
  8.684127e+00    2.130734e+02
  8.883762e+00    2.140845e+02
  9.083397e+00    2.130312e+02
  9.283033e+00    2.119424e+02
  9.482668e+00    2.156307e+02
  9.682303e+00    2.153857e+02
  9.881938e+00    2.150000e+02
  1.008157e+01    2.153676e+02
  1.028121e+01    2.168777e+02
  1.048084e+01    2.195100e+02
  1.068048e+01    2.163482e+02
  1.088011e+01    2.159833e+02
  1.107975e+01    2.190607e+02
  1.127938e+01    2.190419e+02
  1.147902e+01    2.183848e+02
  1.167865e+01    2.187263e+02
  1.187829e+01    2.201188e+02
  1.207792e+01    2.176129e+02
  1.227756e+01    2.178202e+02
  1.247719e+01    2.209728e+02
  1.267683e+01    2.186422e+02
  1.287646e+01    2.200068e+02
  1.307610e+01    2.215583e+02
  1.327573e+01    2.200593e+02
  1.347537e+01    2.213514e+02
  1.367500e+01    2.211974e+02
  1.387464e+01    2.237580e+02
  1.407428e+01    2.262485e+02
  1.427391e+01    2.220611e+02
  1.447355e+01    2.226332e+02
  1.467318e+01    2.226649e+02
  1.487282e+01    2.238612e+02
  1.507245e+01    2.267520e+02
  1.527209e+01    2.261490e+02
  1.547172e+01    2.251836e+02
  1.567136e+01    2.258273e+02
  1.587099e+01    2.271969e+02
  1.607063e+01    2.264308e+02
  1.627026e+01    2.267829e+02
  1.646990e+01    2.284475e+02
  1.666953e+01    2.292125e+02
  1.686917e+01    2.289502e+02
  1.706880e+01    2.317756e+02
  1.726844e+01    2.329954e+02
  1.746807e+01    2.311185e+02
  1.766771e+01    2.282454e+02
  1.786734e+01    2.301730e+02
  1.806698e+01    2.305034e+02
  1.826661e+01    2.282241e+02
  1.846625e+01    2.293775e+02
  1.866588e+01    2.328552e+02
  1.886552e+01    2.337739e+02
  1.906515e+01    2.330629e+02
  1.926479e+01    2.352333e+02
  1.946442e+01    2.335322e+02
  1.966406e+01    2.351761e+02
  1.986369e+01    2.332402e+02
  2.006333e+01    2.333375e+02
  2.026296e+01    2.357224e+02
  2.046260e+01    2.361559e+02
  2.066223e+01    2.383937e+02
  2.086187e+01    2.395198e+02
  2.106150e+01    2.387082e+02
  2.126114e+01    2.379164e+02
  2.146077e+01    2.385780e+02
  2.166041e+01    2.399944e+02
  2.186004e+01    2.412722e+02
  2.205968e+01    2.415216e+02
  2.225931e+01    2.412994e+02
  2.245895e+01    2.425363e+02
  2.265858e+01    2.414533e+02
  2.285822e+01    2.427666e+02
  2.305786e+01    2.444403e+02
  2.325749e+01    2.465272e+02
  2.345713e+01    2.461632e+02
  2.365676e+01    2.447218e+02
  2.385640e+01    2.466427e+02
  2.405603e+01    2.452699e+02
  2.425567e+01    2.455766e+02
  2.445530e+01    2.450866e+02
  2.465494e+01    2.476475e+02
  2.485457e+01    2.463539e+02
  2.505421e+01    2.450987e+02
  2.525384e+01    2.507442e+02
  2.545348e+01    2.513043e+02
  2.565311e+01    2.523517e+02
  2.585275e+01    2.517040e+02
  2.605238e+01    2.508847e+02
  2.625202e+01    2.501962e+02
  2.645165e+01    2.514308e+02
  2.665129e+01    2.531055e+02
  2.685092e+01    2.536429e+02
  2.705056e+01    2.530636e+02
  2.725019e+01    2.508878e+02
  2.744983e+01    2.518264e+02
  2.764946e+01    2.495216e+02
  2.784910e+01    2.518773e+02
  2.804873e+01    2.526141e+02
  2.824837e+01    2.538861e+02
  2.844800e+01    2.536024e+02
  2.864764e+01    2.547498e+02
  2.884727e+01    2.549924e+02
  2.904691e+01    2.545291e+02
  2.924654e+01    2.557863e+02
  2.944618e+01    2.580802e+02
  2.964581e+01    2.591398e+02
  2.984545e+01    2.594138e+02
  3.004508e+01    2.588441e+02
  3.024472e+01    2.609638e+02
  3.044435e+01    2.605947e+02
  3.064399e+01    2.582226e+02
  3.084362e+01    2.600079e+02
  3.104326e+01    2.597129e+02
  3.124289e+01    2.621150e+02
  3.144253e+01    2.629741e+02
  3.164216e+01    2.614153e+02
  3.184180e+01    2.633697e+02
  3.204143e+01    2.640099e+02
  3.224107e+01    2.642646e+02
  3.244071e+01    2.638643e+02
  3.264034e+01    2.660222e+02
  3.283998e+01    2.644532e+02
  3.303961e+01    2.638519e+02
  3.323925e+01    2.685377e+02
  3.343888e+01    2.680699e+02
  3.363852e+01    2.676376e+02
  3.383815e+01    2.673801e+02
  3.403779e+01    2.696193e+02
  3.423742e+01    2.701269e+02
  3.443706e+01    2.699270e+02
  3.463669e+01    2.707273e+02
  3.483633e+01    2.693998e+02
  3.503596e+01    2.701898e+02
  3.523560e+01    2.699467e+02
  3.543523e+01    2.718585e+02
  3.563487e+01    2.721945e+02
  3.583450e+01    2.725984e+02
  3.603414e+01    2.723753e+02
  3.623377e+01    2.742481e+02
  3.643341e+01    2.749766e+02
  3.663304e+01    2.748070e+02
  3.683268e+01    2.741460e+02
  3.703231e+01    2.761730e+02
  3.723195e+01    2.784562e+02
  3.743158e+01    2.771577e+02
  3.763122e+01    2.764740e+02
  3.783085e+01    2.768676e+02
  3.803049e+01    2.770755e+02
  3.823012e+01    2.774106e+02
  3.842976e+01    2.772066e+02
  3.862939e+01    2.806084e+02
  3.882903e+01    2.795792e+02
  3.902866e+01    2.783631e+02
  3.922830e+01    2.788152e+02
  3.942793e+01    2.822539e+02
  3.962757e+01    2.835146e+02
  3.982720e+01    2.853717e+02
  4.002684e+01    2.816819e+02
  4.022647e+01    2.833711e+02
  4.042611e+01    2.836741e+02
  4.062574e+01    2.857029e+02
  4.082538e+01    2.864422e+02
  4.102501e+01    2.868835e+02
  4.122465e+01    2.882105e+02
  4.142428e+01    2.883741e+02
  4.162392e+01    2.885835e+02
  4.182356e+01    2.877643e+02
  4.202319e+01    2.881503e+02
  4.222283e+01    2.876151e+02
  4.242246e+01    2.878292e+02
  4.262210e+01    2.907176e+02
  4.282173e+01    2.905647e+02
  4.302137e+01    2.907639e+02
  4.322100e+01    2.931762e+02
  4.342064e+01    2.942143e+02
  4.362027e+01    2.950502e+02
  4.381991e+01    2.955540e+02
  4.401954e+01    2.948179e+02
  4.421918e+01    2.940920e+02
  4.441881e+01    2.980414e+02
  4.461845e+01    3.003715e+02
  4.481808e+01    2.982764e+02
  4.501772e+01    2.983459e+02
  4.521735e+01    2.985762e+02
  4.541699e+01    2.989955e+02
  4.561662e+01    2.993647e+02
  4.581626e+01    3.000897e+02
  4.601589e+01    3.035131e+02
  4.621553e+01    3.028427e+02
  4.641516e+01    3.020304e+02
  4.661480e+01    3.046373e+02
  4.681443e+01    3.054462e+02
  4.701407e+01    3.039404e+02
  4.721370e+01    3.029501e+02
  4.741334e+01    3.044010e+02
  4.761297e+01    3.050892e+02
  4.781261e+01    3.064121e+02
  4.801224e+01    3.074346e+02
  4.821188e+01    3.103112e+02
  4.841151e+01    3.107893e+02
  4.861115e+01    3.094753e+02
  4.881078e+01    3.108916e+02
  4.901042e+01    3.114679e+02
  4.921005e+01    3.115153e+02
  4.940969e+01    3.117353e+02
  4.960932e+01    3.113968e+02
  4.980896e+01    3.088277e+02
  5.000859e+01    3.106941e+02
  5.020823e+01    3.131952e+02
  5.040786e+01    3.157299e+02
  5.060750e+01    3.166973e+02
  5.080714e+01    3.161450e+02
  5.100677e+01    3.160014e+02
  5.120641e+01    3.154806e+02
  5.140604e+01    3.183659e+02
  5.160568e+01    3.186533e+02
  5.180531e+01    3.187926e+02
  5.200495e+01    3.200138e+02
  5.220458e+01    3.187771e+02
  5.240422e+01    3.175569e+02
  5.260385e+01    3.180615e+02
  5.280349e+01    3.194485e+02
  5.300312e+01    3.202097e+02
  5.320276e+01    3.232784e+02
  5.340239e+01    3.238691e+02
  5.360203e+01    3.239328e+02
  5.380166e+01    3.248766e+02
  5.400130e+01    3.270182e+02
  5.420093e+01    3.284698e+02
  5.440057e+01    3.297832e+02
  5.460020e+01    3.297366e+02
  5.479984e+01    3.301676e+02
  5.499947e+01    3.299995e+02
  5.519911e+01    3.323016e+02
  5.539874e+01    3.322518e+02
  5.559838e+01    3.317051e+02
  5.579801e+01    3.321938e+02
  5.599765e+01    3.316165e+02
  5.619728e+01    3.324697e+02
  5.639692e+01    3.345882e+02
  5.659655e+01    3.358813e+02
  5.679619e+01    3.350286e+02
  5.699582e+01    3.353462e+02
  5.719546e+01    3.372186e+02
  5.739509e+01    3.369440e+02
  5.759473e+01    3.383053e+02
  5.779436e+01    3.395829e+02
  5.799400e+01    3.410529e+02
  5.819363e+01    3.426373e+02
  5.839327e+01    3.418534e+02
  5.859290e+01    3.426973e+02
  5.879254e+01    3.428798e+02
  5.899217e+01    3.442893e+02
  5.919181e+01    3.452859e+02
  5.939144e+01    3.454483e+02
  5.959108e+01    3.464068e+02
  5.979071e+01    3.451540e+02
  5.999035e+01    3.469878e+02
  6.018999e+01    3.491974e+02
  6.038962e+01    3.493608e+02
  6.058926e+01    3.512945e+02
  6.078889e+01    3.514173e+02
  6.098853e+01    3.519404e+02
  6.118816e+01    3.529901e+02
  6.138780e+01    3.530422e+02
  6.158743e+01    3.531869e+02
  6.178707e+01    3.536798e+02
  6.198670e+01    3.531554e+02
  6.218634e+01    3.543392e+02
  6.238597e+01    3.563539e+02
  6.258561e+01    3.560968e+02
  6.278524e+01    3.581576e+02
  6.298488e+01    3.585198e+02
  6.318451e+01    3.593354e+02
  6.338415e+01    3.602285e+02
  6.358378e+01    3.626268e+02
  6.378342e+01    3.618908e+02
  6.398305e+01    3.611481e+02
  6.418269e+01    3.627287e+02
  6.438232e+01    3.628338e+02
  6.458196e+01    3.639776e+02
  6.478159e+01    3.658240e+02
  6.498123e+01    3.675201e+02
  6.518086e+01    3.684532e+02
  6.538050e+01    3.697267e+02
  6.558013e+01    3.682609e+02
  6.577977e+01    3.676367e+02
  6.597940e+01    3.693838e+02
  6.617904e+01    3.703750e+02
  6.637867e+01    3.713793e+02
  6.657831e+01    3.726208e+02
  6.677794e+01    3.720410e+02
  6.697758e+01    3.729318e+02
  6.717721e+01    3.750014e+02
  6.737685e+01    3.766277e+02
  6.757648e+01    3.763812e+02
  6.777612e+01    3.763160e+02
  6.797575e+01    3.772150e+02
  6.817539e+01    3.780769e+02
  6.837502e+01    3.807507e+02
  6.857466e+01    3.819009e+02
  6.877429e+01    3.811410e+02
  6.897393e+01    3.812414e+02
  6.917357e+01    3.814638e+02
  6.937320e+01    3.821975e+02
  6.957284e+01    3.841382e+02
  6.977247e+01    3.857167e+02
  6.997211e+01    3.869204e+02
  7.017174e+01    3.882069e+02
  7.037138e+01    3.886550e+02
  7.057101e+01    3.889800e+02
  7.077065e+01    3.900922e+02
  7.097028e+01    3.917437e+02
  7.116992e+01    3.935624e+02
  7.136955e+01    3.934297e+02
  7.156919e+01    3.954756e+02
  7.176882e+01    3.951230e+02
  7.196846e+01    3.952492e+02
  7.216809e+01    3.948477e+02
  7.236773e+01    3.965706e+02
  7.256736e+01    3.981980e+02
  7.276700e+01    3.986284e+02
  7.296663e+01    3.998704e+02
  7.316627e+01    4.013491e+02
  7.336590e+01    4.007480e+02
  7.356554e+01    4.025365e+02
  7.376517e+01    4.026117e+02
  7.396481e+01    4.036357e+02
  7.416444e+01    4.058089e+02
  7.436408e+01    4.073956e+02
  7.456371e+01    4.061583e+02
  7.476335e+01    4.086158e+02
  7.496298e+01    4.103232e+02
  7.516262e+01    4.115262e+02
  7.536225e+01    4.107219e+02
  7.556189e+01    4.124615e+02
  7.576152e+01    4.125688e+02
  7.596116e+01    4.137812e+02
  7.616079e+01    4.167531e+02
  7.636043e+01    4.155243e+02
  7.656006e+01    4.147778e+02
  7.675970e+01    4.165225e+02
  7.695933e+01    4.177211e+02
  7.715897e+01    4.208003e+02
  7.735860e+01    4.221324e+02
  7.755824e+01    4.217111e+02
  7.775787e+01    4.226262e+02
  7.795751e+01    4.258915e+02
  7.815714e+01    4.260056e+02
  7.835678e+01    4.263275e+02
  7.855642e+01    4.267334e+02
  7.875605e+01    4.280034e+02
  7.895569e+01    4.294325e+02
  7.915532e+01    4.302673e+02
  7.935496e+01    4.326609e+02
  7.955459e+01    4.337350e+02
  7.975423e+01    4.330443e+02
  7.995386e+01    4.332348e+02
  8.015350e+01    4.343915e+02
  8.035313e+01    4.350759e+02
  8.055277e+01    4.358099e+02
  8.075240e+01    4.364156e+02
  8.095204e+01    4.375968e+02
  8.115167e+01    4.398358e+02
  8.135131e+01    4.420666e+02
  8.155094e+01    4.433458e+02
  8.175058e+01    4.441450e+02
  8.195021e+01    4.435134e+02
  8.214985e+01    4.460561e+02
  8.234948e+01    4.479914e+02
  8.254912e+01    4.479027e+02
  8.274875e+01    4.479478e+02
  8.294839e+01    4.499208e+02
  8.314802e+01    4.523191e+02
  8.334766e+01    4.530685e+02
  8.354729e+01    4.544770e+02
  8.374693e+01    4.542990e+02
  8.394656e+01    4.569479e+02
  8.414620e+01    4.572956e+02
  8.434583e+01    4.598590e+02
  8.454547e+01    4.613010e+02
  8.474510e+01    4.607682e+02
  8.494474e+01    4.600130e+02
  8.514437e+01    4.610489e+02
  8.534401e+01    4.632605e+02
  8.554364e+01    4.653838e+02
  8.574328e+01    4.673343e+02
  8.594291e+01    4.687932e+02
  8.614255e+01    4.696347e+02
  8.634218e+01    4.705075e+02
  8.654182e+01    4.714033e+02
  8.674145e+01    4.722500e+02
  8.694109e+01    4.740783e+02
  8.714072e+01    4.737609e+02
  8.734036e+01    4.751462e+02
  8.753999e+01    4.765722e+02
  8.773963e+01    4.773232e+02
  8.793927e+01    4.775633e+02
  8.813890e+01    4.782706e+02
  8.833854e+01    4.808556e+02
  8.853817e+01    4.827140e+02
  8.873781e+01    4.824781e+02
  8.893744e+01    4.838570e+02
  8.913708e+01    4.844227e+02
  8.933671e+01    4.861526e+02
  8.953635e+01    4.870494e+02
  8.973598e+01    4.885150e+02
  8.993562e+01    4.903140e+02
  9.013525e+01    4.918278e+02
  9.033489e+01    4.925169e+02
  9.053452e+01    4.943210e+02
  9.073416e+01    4.962178e+02
  9.093379e+01    4.956443e+02
  9.113343e+01    4.955350e+02
  9.133306e+01    4.986093e+02
  9.153270e+01    4.997461e+02
  9.173233e+01    5.016262e+02
  9.193197e+01    5.033164e+02
  9.213160e+01    5.030557e+02
  9.233124e+01    5.051181e+02
  9.253087e+01    5.068186e+02
  9.273051e+01    5.075999e+02
  9.293014e+01    5.079277e+02
  9.312978e+01    5.119237e+02
  9.332941e+01    5.117307e+02
  9.352905e+01    5.128588e+02
  9.372868e+01    5.139304e+02
  9.392832e+01    5.158311e+02
  9.412795e+01    5.145478e+02
  9.432759e+01    5.168187e+02
  9.452722e+01    5.181427e+02
  9.472686e+01    5.186622e+02
  9.492649e+01    5.208483e+02
  9.512613e+01    5.228526e+02
  9.532576e+01    5.222485e+02
  9.552540e+01    5.241115e+02
  9.572503e+01    5.265982e+02
  9.592467e+01    5.274123e+02
  9.612430e+01    5.289306e+02
  9.632394e+01    5.293618e+02
  9.652357e+01    5.289681e+02
  9.672321e+01    5.313529e+02
  9.692285e+01    5.331680e+02
  9.712248e+01    5.366656e+02
  9.732212e+01    5.385622e+02
  9.752175e+01    5.405435e+02
  9.772139e+01    5.410273e+02
  9.792102e+01    5.410385e+02
  9.812066e+01    5.415294e+02
  9.832029e+01    5.434420e+02
  9.851993e+01    5.435511e+02
  9.871956e+01    5.467916e+02
  9.891920e+01    5.481126e+02
  9.911883e+01    5.479985e+02
  9.931847e+01    5.491987e+02
  9.951810e+01    5.507862e+02
  9.971774e+01    5.521613e+02
  9.991737e+01    5.530712e+02
  1.001170e+02    5.552884e+02
  1.003166e+02    5.575004e+02
  1.005163e+02    5.582025e+02
  1.007159e+02    5.605444e+02
  1.009155e+02    5.641776e+02
  1.011152e+02    5.641998e+02
  1.013148e+02    5.659739e+02
  1.015145e+02    5.656005e+02
  1.017141e+02    5.654246e+02
  1.019137e+02    5.679583e+02
  1.021134e+02    5.705945e+02
  1.023130e+02    5.713156e+02
  1.025126e+02    5.731336e+02
  1.027123e+02    5.753846e+02
  1.029119e+02    5.775541e+02
  1.031115e+02    5.783983e+02
  1.033112e+02    5.787670e+02
  1.035108e+02    5.788649e+02
  1.037104e+02    5.804806e+02
  1.039101e+02    5.835377e+02
  1.041097e+02    5.847745e+02
  1.043093e+02    5.882903e+02
  1.045090e+02    5.881180e+02
  1.047086e+02    5.898890e+02
  1.049082e+02    5.914268e+02
  1.051079e+02    5.936353e+02
  1.053075e+02    5.953463e+02
  1.055072e+02    5.977686e+02
  1.057068e+02    5.978829e+02
  1.059064e+02    5.975301e+02
  1.061061e+02    5.997022e+02
  1.063057e+02    6.024916e+02
  1.065053e+02    6.035342e+02
  1.067050e+02    6.063613e+02
  1.069046e+02    6.098533e+02
  1.071042e+02    6.113491e+02
  1.073039e+02    6.112002e+02
  1.075035e+02    6.127715e+02
  1.077031e+02    6.144936e+02
  1.079028e+02    6.141279e+02
  1.081024e+02    6.145258e+02
  1.083020e+02    6.181396e+02
  1.085017e+02    6.204163e+02
  1.087013e+02    6.215373e+02
  1.089010e+02    6.227513e+02
  1.091006e+02    6.268476e+02
  1.093002e+02    6.275552e+02
  1.094999e+02    6.273248e+02
  1.096995e+02    6.307783e+02
  1.098991e+02    6.316359e+02
  1.100988e+02    6.327095e+02
  1.102984e+02    6.353090e+02
  1.104980e+02    6.359271e+02
  1.106977e+02    6.386973e+02
  1.108973e+02    6.409121e+02
  1.110969e+02    6.419192e+02
  1.112966e+02    6.428228e+02
  1.114962e+02    6.440096e+02
  1.116958e+02    6.466946e+02
  1.118955e+02    6.503135e+02
  1.120951e+02    6.521390e+02
  1.122947e+02    6.535071e+02
  1.124944e+02    6.540748e+02
  1.126940e+02    6.574944e+02
  1.128937e+02    6.586090e+02
  1.130933e+02    6.591321e+02
  1.132929e+02    6.610773e+02
  1.134926e+02    6.630357e+02
  1.136922e+02    6.650662e+02
  1.138918e+02    6.661649e+02
  1.140915e+02    6.671658e+02
  1.142911e+02    6.711099e+02
  1.144907e+02    6.717896e+02
  1.146904e+02    6.719276e+02
  1.148900e+02    6.776393e+02
  1.150896e+02    6.773038e+02
  1.152893e+02    6.800631e+02
  1.154889e+02    6.833240e+02
  1.156885e+02    6.837173e+02
  1.158882e+02    6.854335e+02
  1.160878e+02    6.879196e+02
  1.162875e+02    6.909456e+02
  1.164871e+02    6.931201e+02
  1.166867e+02    6.926253e+02
  1.168864e+02    6.944451e+02
  1.170860e+02    6.965294e+02
  1.172856e+02    6.976821e+02
  1.174853e+02    6.993434e+02
  1.176849e+02    7.011097e+02
  1.178845e+02    7.054966e+02
  1.180842e+02    7.091010e+02
  1.182838e+02    7.098370e+02
  1.184834e+02    7.112090e+02
  1.186831e+02    7.119828e+02
  1.188827e+02    7.141771e+02
  1.190823e+02    7.160019e+02
  1.192820e+02    7.203454e+02
  1.194816e+02    7.238619e+02
  1.196812e+02    7.259297e+02
  1.198809e+02    7.282264e+02
  1.200805e+02    7.312636e+02
  1.202802e+02    7.333892e+02
  1.204798e+02    7.348249e+02
  1.206794e+02    7.373285e+02
  1.208791e+02    7.413447e+02
  1.210787e+02    7.429390e+02
  1.212783e+02    7.424894e+02
  1.214780e+02    7.438981e+02
  1.216776e+02    7.465311e+02
  1.218772e+02    7.491670e+02
  1.220769e+02    7.526201e+02
  1.222765e+02    7.533238e+02
  1.224761e+02    7.578835e+02
  1.226758e+02    7.617040e+02
  1.228754e+02    7.620933e+02
  1.230750e+02    7.618296e+02
  1.232747e+02    7.652180e+02
  1.234743e+02    7.683586e+02
  1.236739e+02    7.695031e+02
  1.238736e+02    7.745750e+02
  1.240732e+02    7.783483e+02
  1.242729e+02    7.773640e+02
  1.244725e+02    7.804507e+02
  1.246721e+02    7.824467e+02
  1.248718e+02    7.845703e+02
  1.250714e+02    7.881418e+02
  1.252710e+02    7.908975e+02
  1.254707e+02    7.926990e+02
  1.256703e+02    7.935840e+02
  1.258699e+02    7.981352e+02
  1.260696e+02    8.019111e+02
  1.262692e+02    8.034539e+02
  1.264688e+02    8.060646e+02
  1.266685e+02    8.096965e+02
  1.268681e+02    8.098181e+02
  1.270677e+02    8.131697e+02
  1.272674e+02    8.155400e+02
  1.274670e+02    8.195154e+02
  1.276667e+02    8.237348e+02
  1.278663e+02    8.258812e+02
  1.280659e+02    8.281130e+02
  1.282656e+02    8.314137e+02
  1.284652e+02    8.328098e+02
  1.286648e+02    8.362899e+02
  1.288645e+02    8.396298e+02
  1.290641e+02    8.403545e+02
  1.292637e+02    8.435861e+02
  1.294634e+02    8.460908e+02
  1.296630e+02    8.492797e+02
  1.298626e+02    8.533738e+02
  1.300623e+02    8.569256e+02
  1.302619e+02    8.587674e+02
  1.304615e+02    8.620735e+02
  1.306612e+02    8.652182e+02
  1.308608e+02    8.693005e+02
  1.310604e+02    8.740309e+02
  1.312601e+02    8.735443e+02
  1.314597e+02    8.771747e+02
  1.316594e+02    8.814031e+02
  1.318590e+02    8.836239e+02
  1.320586e+02    8.875065e+02
  1.322583e+02    8.899530e+02
  1.324579e+02    8.951935e+02
  1.326575e+02    8.965969e+02
  1.328572e+02    8.965738e+02
  1.330568e+02    9.021878e+02
  1.332564e+02    9.053494e+02
  1.334561e+02    9.090574e+02
  1.336557e+02    9.130349e+02
  1.338553e+02    9.150294e+02
  1.340550e+02    9.195562e+02
  1.342546e+02    9.224445e+02
  1.344542e+02    9.275143e+02
  1.346539e+02    9.296500e+02
  1.348535e+02    9.333850e+02
  1.350532e+02    9.380610e+02
  1.352528e+02    9.409505e+02
  1.354524e+02    9.446703e+02
  1.356521e+02    9.466620e+02
  1.358517e+02    9.518174e+02
  1.360513e+02    9.550521e+02
  1.362510e+02    9.574277e+02
  1.364506e+02    9.594646e+02
  1.366502e+02    9.652712e+02
  1.368499e+02    9.690853e+02
  1.370495e+02    9.724104e+02
  1.372491e+02    9.762610e+02
  1.374488e+02    9.833614e+02
  1.376484e+02    9.850210e+02
  1.378480e+02    9.870541e+02
  1.380477e+02    9.913849e+02
  1.382473e+02    9.962712e+02
  1.384469e+02    9.990991e+02
  1.386466e+02    1.002352e+03
  1.388462e+02    1.006646e+03
  1.390459e+02    1.011865e+03
  1.392455e+02    1.016147e+03
  1.394451e+02    1.019369e+03
  1.396448e+02    1.023083e+03
  1.398444e+02    1.027675e+03
  1.400440e+02    1.029433e+03
  1.402437e+02    1.033952e+03
  1.404433e+02    1.039766e+03
  1.406429e+02    1.041746e+03
  1.408426e+02    1.043922e+03
  1.410422e+02    1.048944e+03
  1.412418e+02    1.052731e+03
  1.414415e+02    1.057432e+03
  1.416411e+02    1.063930e+03
  1.418407e+02    1.066604e+03
  1.420404e+02    1.068766e+03
  1.422400e+02    1.071002e+03
  1.424396e+02    1.075416e+03
  1.426393e+02    1.081049e+03
  1.428389e+02    1.085076e+03
  1.430386e+02    1.090366e+03
  1.432382e+02    1.094042e+03
  1.434378e+02    1.099309e+03
  1.436375e+02    1.102343e+03
  1.438371e+02    1.105794e+03
  1.440367e+02    1.112191e+03
  1.442364e+02    1.113711e+03
  1.444360e+02    1.120508e+03
  1.446356e+02    1.123879e+03
  1.448353e+02    1.126923e+03
  1.450349e+02    1.134214e+03
  1.452345e+02    1.137882e+03
  1.454342e+02    1.140424e+03
  1.456338e+02    1.144015e+03
  1.458334e+02    1.150138e+03
  1.460331e+02    1.155056e+03
  1.462327e+02    1.158185e+03
  1.464324e+02    1.162402e+03
  1.466320e+02    1.168175e+03
  1.468316e+02    1.173750e+03
  1.470313e+02    1.179204e+03
  1.472309e+02    1.182324e+03
  1.474305e+02    1.187099e+03
  1.476302e+02    1.191029e+03
  1.478298e+02    1.195043e+03
  1.480294e+02    1.200916e+03
  1.482291e+02    1.206863e+03
  1.484287e+02    1.210228e+03
  1.486283e+02    1.213338e+03
  1.488280e+02    1.219191e+03
  1.490276e+02    1.222826e+03
  1.492272e+02    1.228043e+03
  1.494269e+02    1.236030e+03
  1.496265e+02    1.241074e+03
  1.498261e+02    1.244714e+03
  1.500258e+02    1.249465e+03
  1.502254e+02    1.255002e+03
  1.504251e+02    1.257518e+03
  1.506247e+02    1.264968e+03
  1.508243e+02    1.272380e+03
  1.510240e+02    1.275364e+03
  1.512236e+02    1.279665e+03
  1.514232e+02    1.285388e+03
  1.516229e+02    1.292104e+03
  1.518225e+02    1.297038e+03
  1.520221e+02    1.300991e+03
  1.522218e+02    1.306369e+03
  1.524214e+02    1.309335e+03
  1.526210e+02    1.316225e+03
  1.528207e+02    1.323186e+03
  1.530203e+02    1.326413e+03
  1.532199e+02    1.332038e+03
  1.534196e+02    1.339200e+03
  1.536192e+02    1.344169e+03
  1.538189e+02    1.348711e+03
  1.540185e+02    1.354481e+03
  1.542181e+02    1.358403e+03
  1.544178e+02    1.365184e+03
  1.546174e+02    1.373716e+03
  1.548170e+02    1.378648e+03
  1.550167e+02    1.386649e+03
  1.552163e+02    1.391589e+03
  1.554159e+02    1.395411e+03
  1.556156e+02    1.400071e+03
  1.558152e+02    1.406391e+03
  1.560148e+02    1.412789e+03
  1.562145e+02    1.419322e+03
  1.564141e+02    1.425141e+03
  1.566137e+02    1.432216e+03
  1.568134e+02    1.437935e+03
  1.570130e+02    1.442505e+03
  1.572126e+02    1.448615e+03
  1.574123e+02    1.455226e+03
  1.576119e+02    1.462595e+03
  1.578116e+02    1.468287e+03
  1.580112e+02    1.475822e+03
  1.582108e+02    1.482240e+03
  1.584105e+02    1.489552e+03
  1.586101e+02    1.498832e+03
  1.588097e+02    1.505680e+03
  1.590094e+02    1.508653e+03
  1.592090e+02    1.514553e+03
  1.594086e+02    1.522339e+03
  1.596083e+02    1.529693e+03
  1.598079e+02    1.537202e+03
  1.600075e+02    1.544326e+03
  1.602072e+02    1.552133e+03
  1.604068e+02    1.558801e+03
  1.606064e+02    1.563793e+03
  1.608061e+02    1.570504e+03
  1.610057e+02    1.578069e+03
  1.612053e+02    1.584803e+03
  1.614050e+02    1.590552e+03
  1.616046e+02    1.598689e+03
  1.618043e+02    1.606820e+03
  1.620039e+02    1.613100e+03
  1.622035e+02    1.623125e+03
  1.624032e+02    1.629334e+03
  1.626028e+02    1.637318e+03
  1.628024e+02    1.646671e+03
  1.630021e+02    1.654973e+03
  1.632017e+02    1.658080e+03
  1.634013e+02    1.668149e+03
  1.636010e+02    1.676363e+03
  1.638006e+02    1.681525e+03
  1.640002e+02    1.689428e+03
  1.641999e+02    1.699059e+03
  1.643995e+02    1.704389e+03
  1.645991e+02    1.711578e+03
  1.647988e+02    1.721396e+03
  1.649984e+02    1.728837e+03
  1.651981e+02    1.735777e+03
  1.653977e+02    1.746697e+03
  1.655973e+02    1.753840e+03
  1.657970e+02    1.764987e+03
  1.659966e+02    1.772772e+03
  1.661962e+02    1.779383e+03
  1.663959e+02    1.788541e+03
  1.665955e+02    1.795234e+03
  1.667951e+02    1.804386e+03
  1.669948e+02    1.814586e+03
  1.671944e+02    1.823134e+03
  1.673940e+02    1.830958e+03
  1.675937e+02    1.838205e+03
  1.677933e+02    1.851320e+03
  1.679929e+02    1.860220e+03
  1.681926e+02    1.869137e+03
  1.683922e+02    1.875714e+03
  1.685918e+02    1.883051e+03
  1.687915e+02    1.894194e+03
  1.689911e+02    1.904756e+03
  1.691908e+02    1.912112e+03
  1.693904e+02    1.922754e+03
  1.695900e+02    1.932423e+03
  1.697897e+02    1.938594e+03
  1.699893e+02    1.950623e+03
  1.701889e+02    1.960080e+03
  1.703886e+02    1.968340e+03
  1.705882e+02    1.980661e+03
  1.707878e+02    1.989147e+03
  1.709875e+02    2.000213e+03
  1.711871e+02    2.005307e+03
  1.713867e+02    2.015978e+03
  1.715864e+02    2.024921e+03
  1.717860e+02    2.038669e+03
  1.719856e+02    2.048081e+03
  1.721853e+02    2.057408e+03
  1.723849e+02    2.070238e+03
  1.725846e+02    2.080663e+03
  1.727842e+02    2.088344e+03
  1.729838e+02    2.097278e+03
  1.731835e+02    2.109207e+03
  1.733831e+02    2.121763e+03
  1.735827e+02    2.132679e+03
  1.737824e+02    2.140841e+03
  1.739820e+02    2.150016e+03
  1.741816e+02    2.159890e+03
  1.743813e+02    2.170267e+03
  1.745809e+02    2.183282e+03
  1.747805e+02    2.191474e+03
  1.749802e+02    2.201630e+03
  1.751798e+02    2.215797e+03
  1.753794e+02    2.221358e+03
  1.755791e+02    2.236687e+03
  1.757787e+02    2.249016e+03
  1.759783e+02    2.258050e+03
  1.761780e+02    2.268312e+03
  1.763776e+02    2.282871e+03
  1.765773e+02    2.291288e+03
  1.767769e+02    2.302178e+03
  1.769765e+02    2.313793e+03
  1.771762e+02    2.328811e+03
  1.773758e+02    2.341319e+03
  1.775754e+02    2.351233e+03
  1.777751e+02    2.362666e+03
  1.779747e+02    2.376789e+03
  1.781743e+02    2.384787e+03
  1.783740e+02    2.395664e+03
  1.785736e+02    2.410873e+03
  1.787732e+02    2.424224e+03
  1.789729e+02    2.434681e+03
  1.791725e+02    2.451667e+03
  1.793721e+02    2.463093e+03
  1.795718e+02    2.474889e+03
  1.797714e+02    2.487540e+03
  1.799711e+02    2.501224e+03
  1.801707e+02    2.514097e+03
  1.803703e+02    2.525343e+03
  1.805700e+02    2.541158e+03
  1.807696e+02    2.553503e+03
  1.809692e+02    2.568686e+03
  1.811689e+02    2.582748e+03
  1.813685e+02    2.594828e+03
  1.815681e+02    2.607512e+03
  1.817678e+02    2.622275e+03
  1.819674e+02    2.635443e+03
  1.821670e+02    2.647104e+03
  1.823667e+02    2.663179e+03
  1.825663e+02    2.677632e+03
  1.827659e+02    2.692238e+03
  1.829656e+02    2.709050e+03
  1.831652e+02    2.724374e+03
  1.833648e+02    2.737092e+03
  1.835645e+02    2.755214e+03
  1.837641e+02    2.768604e+03
  1.839638e+02    2.781405e+03
  1.841634e+02    2.798467e+03
  1.843630e+02    2.815877e+03
  1.845627e+02    2.832384e+03
  1.847623e+02    2.845536e+03
  1.849619e+02    2.864145e+03
  1.851616e+02    2.884148e+03
  1.853612e+02    2.900156e+03
  1.855608e+02    2.915153e+03
  1.857605e+02    2.932273e+03
  1.859601e+02    2.950073e+03
  1.861597e+02    2.968312e+03
  1.863594e+02    2.984849e+03
  1.865590e+02    3.000790e+03
  1.867586e+02    3.020718e+03
  1.869583e+02    3.039635e+03
  1.871579e+02    3.058308e+03
  1.873575e+02    3.077008e+03
  1.875572e+02    3.096592e+03
  1.877568e+02    3.113516e+03
  1.879565e+02    3.133765e+03
  1.881561e+02    3.150469e+03
  1.883557e+02    3.171198e+03
  1.885554e+02    3.190947e+03
  1.887550e+02    3.212436e+03
  1.889546e+02    3.234549e+03
  1.891543e+02    3.256977e+03
  1.893539e+02    3.277566e+03
  1.895535e+02    3.298691e+03
  1.897532e+02    3.320362e+03
  1.899528e+02    3.341994e+03
  1.901524e+02    3.363644e+03
  1.903521e+02    3.387842e+03
  1.905517e+02    3.413027e+03
  1.907513e+02    3.433734e+03
  1.909510e+02    3.455882e+03
  1.911506e+02    3.481956e+03
  1.913503e+02    3.510795e+03
  1.915499e+02    3.531866e+03
  1.917495e+02    3.554068e+03
  1.919492e+02    3.580368e+03
  1.921488e+02    3.609197e+03
  1.923484e+02    3.637855e+03
  1.925481e+02    3.662346e+03
  1.927477e+02    3.693399e+03
  1.929473e+02    3.719823e+03
  1.931470e+02    3.745177e+03
  1.933466e+02    3.773092e+03
  1.935462e+02    3.803217e+03
  1.937459e+02    3.832698e+03
  1.939455e+02    3.863539e+03
  1.941451e+02    3.893891e+03
  1.943448e+02    3.925190e+03
  1.945444e+02    3.956865e+03
  1.947440e+02    3.991258e+03
  1.949437e+02    4.019933e+03
  1.951433e+02    4.052207e+03
  1.953430e+02    4.087784e+03
  1.955426e+02    4.120635e+03
  1.957422e+02    4.152021e+03
  1.959419e+02    4.187303e+03
  1.961415e+02    4.220500e+03
  1.963411e+02    4.258561e+03
  1.965408e+02    4.293517e+03
  1.967404e+02    4.327643e+03
  1.969400e+02    4.368137e+03
  1.971397e+02    4.405915e+03
  1.973393e+02    4.445068e+03
  1.975389e+02    4.483003e+03
  1.977386e+02    4.519620e+03
  1.979382e+02    4.558436e+03
  1.981378e+02    4.597746e+03
  1.983375e+02    4.638200e+03
  1.985371e+02    4.677251e+03
  1.987368e+02    4.719494e+03
  1.989364e+02    4.757639e+03
  1.991360e+02    4.801976e+03
  1.993357e+02    4.844598e+03
  1.995353e+02    4.886788e+03
  1.997349e+02    4.929109e+03
  1.999346e+02    4.970222e+03
  2.001342e+02    5.011693e+03
  2.003338e+02    5.054064e+03
  2.005335e+02    5.099018e+03
  2.007331e+02    5.142466e+03
  2.009327e+02    5.184283e+03
  2.011324e+02    5.230764e+03
  2.013320e+02    5.274704e+03
  2.015316e+02    5.318653e+03
  2.017313e+02    5.362991e+03
  2.019309e+02    5.406877e+03
  2.021305e+02    5.445808e+03
  2.023302e+02    5.487185e+03
  2.025298e+02    5.536227e+03
  2.027295e+02    5.576904e+03
  2.029291e+02    5.625101e+03
  2.031287e+02    5.668073e+03
  2.033284e+02    5.712478e+03
  2.035280e+02    5.753896e+03
  2.037276e+02    5.796485e+03
  2.039273e+02    5.839739e+03
  2.041269e+02    5.890427e+03
  2.043265e+02    5.934501e+03
  2.045262e+02    5.978881e+03
  2.047258e+02    6.017610e+03
  2.049254e+02    6.062284e+03
  2.051251e+02    6.106026e+03
  2.053247e+02    6.150958e+03
  2.055243e+02    6.192623e+03
  2.057240e+02    6.235208e+03
  2.059236e+02    6.278929e+03
  2.061232e+02    6.322748e+03
  2.063229e+02    6.368505e+03
  2.065225e+02    6.408388e+03
  2.067222e+02    6.456307e+03
  2.069218e+02    6.502245e+03
  2.071214e+02    6.540589e+03
  2.073211e+02    6.582991e+03
  2.075207e+02    6.633939e+03
  2.077203e+02    6.680721e+03
  2.079200e+02    6.717626e+03
  2.081196e+02    6.758222e+03
  2.083192e+02    6.807525e+03
  2.085189e+02    6.853564e+03
  2.087185e+02    6.896272e+03
  2.089181e+02    6.940627e+03
  2.091178e+02    6.985947e+03
  2.093174e+02    7.034996e+03
  2.095170e+02    7.076585e+03
  2.097167e+02    7.127979e+03
  2.099163e+02    7.176163e+03
  2.101160e+02    7.225888e+03
  2.103156e+02    7.269381e+03
  2.105152e+02    7.322710e+03
  2.107149e+02    7.372766e+03
  2.109145e+02    7.419687e+03
  2.111141e+02    7.471376e+03
  2.113138e+02    7.519868e+03
  2.115134e+02    7.573808e+03
  2.117130e+02    7.621167e+03
  2.119127e+02    7.675713e+03
  2.121123e+02    7.728993e+03
  2.123119e+02    7.781111e+03
  2.125116e+02    7.836903e+03
  2.127112e+02    7.890997e+03
  2.129108e+02    7.950354e+03
  2.131105e+02    8.008208e+03
  2.133101e+02    8.071913e+03
  2.135097e+02    8.127092e+03
  2.137094e+02    8.188830e+03
  2.139090e+02    8.247315e+03
  2.141087e+02    8.310943e+03
  2.143083e+02    8.370425e+03
  2.145079e+02    8.437342e+03
  2.147076e+02    8.509521e+03
  2.149072e+02    8.568362e+03
  2.151068e+02    8.639621e+03
  2.153065e+02    8.715376e+03
  2.155061e+02    8.777186e+03
  2.157057e+02    8.853745e+03
  2.159054e+02    8.928869e+03
  2.161050e+02    9.004418e+03
  2.163046e+02    9.079618e+03
  2.165043e+02    9.162517e+03
  2.167039e+02    9.241136e+03
  2.169035e+02    9.330370e+03
  2.171032e+02    9.411008e+03
  2.173028e+02    9.492869e+03
  2.175025e+02    9.578821e+03
  2.177021e+02    9.671628e+03
  2.179017e+02    9.760108e+03
  2.181014e+02    9.849462e+03
  2.183010e+02    9.939563e+03
  2.185006e+02    1.003872e+04
  2.187003e+02    1.013364e+04
  2.188999e+02    1.022298e+04
  2.190995e+02    1.032786e+04
  2.192992e+02    1.043319e+04
  2.194988e+02    1.053418e+04
  2.196984e+02    1.064416e+04
  2.198981e+02    1.074243e+04
  2.200977e+02    1.084845e+04
  2.202973e+02    1.097077e+04
  2.204970e+02    1.107314e+04
  2.206966e+02    1.119369e+04
  2.208962e+02    1.131123e+04
  2.210959e+02    1.143039e+04
  2.212955e+02    1.154160e+04
  2.214952e+02    1.166218e+04
  2.216948e+02    1.178939e+04
  2.218944e+02    1.192085e+04
  2.220941e+02    1.204995e+04
  2.222937e+02    1.218837e+04
  2.224933e+02    1.231992e+04
  2.226930e+02    1.245322e+04
  2.228926e+02    1.251538e+04
  2.230922e+02    1.259394e+04
  2.232919e+02    1.267974e+04
  2.234915e+02    1.276348e+04
  2.236911e+02    1.285696e+04
  2.238908e+02    1.295643e+04
  2.240904e+02    1.307726e+04
  2.242900e+02    1.320893e+04
  2.244897e+02    1.334100e+04
  2.246893e+02    1.346447e+04
  2.248889e+02    1.359683e+04
  2.250886e+02    1.375047e+04
  2.252882e+02    1.390538e+04
  2.254879e+02    1.404613e+04
  2.256875e+02    1.417501e+04
  2.258871e+02    1.426514e+04
  2.260868e+02    1.437817e+04
  2.262864e+02    1.449230e+04
  2.264860e+02    1.457245e+04
  2.266857e+02    1.465785e+04
  2.268853e+02    1.472970e+04
  2.270849e+02    1.480473e+04
  2.272846e+02    1.488543e+04
  2.274842e+02    1.497744e+04
  2.276838e+02    1.506959e+04
  2.278835e+02    1.514053e+04
  2.280831e+02    1.519324e+04
  2.282827e+02    1.531698e+04
  2.284824e+02    1.538900e+04
  2.286820e+02    1.543641e+04
  2.288817e+02    1.548743e+04
  2.290813e+02    1.555785e+04
  2.292809e+02    1.560762e+04
  2.294806e+02    1.562084e+04
  2.296802e+02    1.561883e+04
  2.298798e+02    1.561058e+04
  2.300795e+02    1.548456e+04
  2.302791e+02    1.531570e+04
  2.304787e+02    1.507638e+04
  2.306784e+02    1.477283e+04
  2.308780e+02    1.428471e+04
  2.310776e+02    1.382741e+04
  2.312773e+02    1.351391e+04
  2.314769e+02    1.347072e+04
  2.316765e+02    1.348968e+04
  2.318762e+02    1.351615e+04
  2.320758e+02    1.354421e+04
  2.322754e+02    1.356660e+04
  2.324751e+02    1.361005e+04
  2.326747e+02    1.366365e+04
  2.328744e+02    1.370872e+04
  2.330740e+02    1.375187e+04
  2.332736e+02    1.379459e+04
  2.334733e+02    1.383388e+04
  2.336729e+02    1.387530e+04
  2.338725e+02    1.391655e+04
  2.340722e+02    1.396315e+04
  2.342718e+02    1.399541e+04
  2.344714e+02    1.403989e+04
  2.346711e+02    1.407551e+04
  2.348707e+02    1.413745e+04
  2.350703e+02    1.417982e+04
  2.352700e+02    1.421048e+04
  2.354696e+02    1.424909e+04
  2.356692e+02    1.428606e+04
  2.358689e+02    1.430847e+04
  2.360685e+02    1.426446e+04
  2.362682e+02    1.425826e+04
  2.364678e+02    1.432267e+04
  2.366674e+02    1.434234e+04
  2.368671e+02    1.433530e+04
  2.370667e+02    1.433234e+04
  2.372663e+02    1.435957e+04
  2.374660e+02    1.435506e+04
  2.376656e+02    1.434649e+04
  2.378652e+02    1.434229e+04
  2.380649e+02    1.437482e+04
  2.382645e+02    1.436182e+04
  2.384641e+02    1.429516e+04
  2.386638e+02    1.426293e+04
  2.388634e+02    1.430135e+04
  2.390630e+02    1.429149e+04
  2.392627e+02    1.424695e+04
  2.394623e+02    1.422321e+04
  2.396619e+02    1.417718e+04
  2.398616e+02    1.415202e+04
  2.400612e+02    1.411800e+04
  2.402609e+02    1.409804e+04
  2.404605e+02    1.406599e+04
  2.406601e+02    1.401579e+04
  2.408598e+02    1.393836e+04
  2.410594e+02    1.386129e+04
  2.412590e+02    1.382477e+04
  2.414587e+02    1.381840e+04
  2.416583e+02    1.377558e+04
  2.418579e+02    1.379475e+04
  2.420576e+02    1.378805e+04
  2.422572e+02    1.377752e+04
  2.424568e+02    1.379443e+04
  2.426565e+02    1.379959e+04
  2.428561e+02    1.383177e+04
  2.430557e+02    1.384875e+04
  2.432554e+02    1.389366e+04
  2.434550e+02    1.391116e+04
  2.436546e+02    1.395700e+04
  2.438543e+02    1.399874e+04
  2.440539e+02    1.401235e+04
  2.442536e+02    1.407904e+04
  2.444532e+02    1.411428e+04
  2.446528e+02    1.414104e+04
  2.448525e+02    1.418375e+04
  2.450521e+02    1.417798e+04
  2.452517e+02    1.412555e+04
  2.454514e+02    1.396918e+04
  2.456510e+02    1.402981e+04
  2.458506e+02    1.404359e+04
  2.460503e+02    1.392479e+04
  2.462499e+02    1.367229e+04
  2.464495e+02    1.364875e+04
  2.466492e+02    1.391835e+04
  2.468488e+02    1.415014e+04
  2.470484e+02    1.411148e+04
  2.472481e+02    1.409262e+04
  2.474477e+02    1.408312e+04
  2.476474e+02    1.400166e+04
  2.478470e+02    1.398181e+04
  2.480466e+02    1.391715e+04
  2.482463e+02    1.388719e+04
  2.484459e+02    1.383482e+04
  2.486455e+02    1.377945e+04
  2.488452e+02    1.369985e+04
  2.490448e+02    1.362906e+04
  2.492444e+02    1.362500e+04
  2.494441e+02    1.353373e+04
  2.496437e+02    1.345550e+04
  2.498433e+02    1.335595e+04
  2.500430e+02    1.328852e+04
  2.502426e+02    1.354414e+04
  2.504422e+02    1.362766e+04
  2.506419e+02    1.345452e+04
  2.508415e+02    1.332199e+04
  2.510411e+02    1.327794e+04
  2.512408e+02    1.330124e+04
  2.514404e+02    1.322941e+04
  2.516401e+02    1.309105e+04
  2.518397e+02    1.292731e+04
  2.520393e+02    1.277469e+04
  2.522390e+02    1.260383e+04
  2.524386e+02    1.242615e+04
  2.526382e+02    1.224377e+04
  2.528379e+02    1.206537e+04
  2.530375e+02    1.186134e+04
  2.532371e+02    1.165303e+04
  2.534368e+02    1.146030e+04
  2.536364e+02    1.126708e+04
  2.538360e+02    1.108261e+04
  2.540357e+02    1.090653e+04
  2.542353e+02    1.072433e+04
  2.544349e+02    1.054877e+04
  2.546346e+02    1.036814e+04
  2.548342e+02    1.019322e+04
  2.550339e+02    1.002619e+04
  2.552335e+02    9.864098e+03
  2.554331e+02    9.702653e+03
  2.556328e+02    9.543979e+03
  2.558324e+02    9.384798e+03
  2.560320e+02    9.226987e+03
  2.562317e+02    9.075305e+03
  2.564313e+02    8.924973e+03
  2.566309e+02    8.773291e+03
  2.568306e+02    8.625001e+03
  2.570302e+02    8.476524e+03
  2.572298e+02    8.338577e+03
  2.574295e+02    8.203239e+03
  2.576291e+02    8.068831e+03
  2.578287e+02    7.938120e+03
  2.580284e+02    7.810476e+03
  2.582280e+02    7.687681e+03
  2.584276e+02    7.564459e+03
  2.586273e+02    7.447765e+03
  2.588269e+02    7.338149e+03
  2.590266e+02    7.228305e+03
  2.592262e+02    7.119196e+03
  2.594258e+02    7.021642e+03
  2.596255e+02    6.920207e+03
  2.598251e+02    6.825656e+03
  2.600247e+02    6.736739e+03
  2.602244e+02    6.646012e+03
  2.604240e+02    6.557321e+03
  2.606236e+02    6.470666e+03
  2.608233e+02    6.387772e+03
  2.610229e+02    6.306109e+03
  2.612225e+02    6.226764e+03
  2.614222e+02    6.149324e+03
  2.616218e+02    6.068768e+03
  2.618214e+02    5.991739e+03
  2.620211e+02    5.912533e+03
  2.622207e+02    5.832187e+03
  2.624203e+02    5.758593e+03
  2.626200e+02    5.679028e+03
  2.628196e+02    5.602579e+03
  2.630193e+02    5.525329e+03
  2.632189e+02    5.446310e+03
  2.634185e+02    5.362667e+03
  2.636182e+02    5.284029e+03
  2.638178e+02    5.203801e+03
  2.640174e+02    5.121907e+03
  2.642171e+02    5.032229e+03
  2.644167e+02    4.947228e+03
  2.646163e+02    4.856966e+03
  2.648160e+02    4.769292e+03
  2.650156e+02    4.678782e+03
  2.652152e+02    4.587208e+03
  2.654149e+02    4.500704e+03
  2.656145e+02    4.412518e+03
  2.658141e+02    4.323214e+03
  2.660138e+02    4.231731e+03
  2.662134e+02    4.142874e+03
  2.664131e+02    4.053112e+03
  2.666127e+02    3.967146e+03
  2.668123e+02    3.877144e+03
  2.670120e+02    3.795133e+03
  2.672116e+02    3.711882e+03
  2.674112e+02    3.635885e+03
  2.676109e+02    3.560430e+03
  2.678105e+02    3.482737e+03
  2.680101e+02    3.410895e+03
  2.682098e+02    3.342293e+03
  2.684094e+02    3.276424e+03
  2.686090e+02    3.215622e+03
  2.688087e+02    3.235199e+03
  2.690083e+02    3.217613e+03
  2.692079e+02    3.186729e+03
  2.694076e+02    3.281598e+03
  2.696072e+02    3.324612e+03
  2.698068e+02    3.343626e+03
  2.700065e+02    3.349907e+03
  2.702061e+02    3.346643e+03
  2.704058e+02    3.341347e+03
  2.706054e+02    3.335092e+03
  2.708050e+02    3.323114e+03
  2.710047e+02    3.308546e+03
  2.712043e+02    3.290466e+03
  2.714039e+02    3.272084e+03
  2.716036e+02    3.251599e+03
  2.718032e+02    3.234229e+03
  2.720028e+02    3.215053e+03
  2.722025e+02    3.190430e+03
  2.724021e+02    3.165198e+03
  2.726017e+02    3.140665e+03
  2.728014e+02    3.116521e+03
  2.730010e+02    3.087301e+03
  2.732006e+02    3.057260e+03
  2.734003e+02    3.029347e+03
  2.735999e+02    3.004109e+03
  2.737996e+02    2.975240e+03
  2.739992e+02    2.944870e+03
  2.741988e+02    2.913646e+03
  2.743985e+02    2.884532e+03
  2.745981e+02    2.850900e+03
  2.747977e+02    2.815451e+03
  2.749974e+02    2.780337e+03
  2.751970e+02    2.747383e+03
  2.753966e+02    2.986041e+03
  2.755963e+02    3.977799e+03
  2.757959e+02    4.081109e+03
  2.759955e+02    3.780947e+03
  2.761952e+02    3.635031e+03
  2.763948e+02    3.601812e+03
  2.765944e+02    3.565715e+03
  2.767941e+02    3.534272e+03
  2.769937e+02    3.492083e+03
  2.771933e+02    3.450175e+03
  2.773930e+02    3.405446e+03
  2.775926e+02    3.364038e+03
  2.777923e+02    3.322439e+03
  2.779919e+02    3.281190e+03
  2.781915e+02    3.591748e+03
  2.783912e+02    3.663309e+03
  2.785908e+02    3.363083e+03
  2.787904e+02    3.731490e+03
  2.789901e+02    3.644656e+03
  2.791897e+02    3.860603e+03
  2.793893e+02    3.965826e+03
  2.795890e+02    4.922171e+03
  2.797886e+02    4.020756e+03
  2.799882e+02    3.886856e+03
  2.801879e+02    3.383527e+03
  2.803875e+02    4.030376e+03
  2.805871e+02    2.889397e+03
  2.807868e+02    3.356643e+03
  2.809864e+02    3.419998e+03
  2.811861e+02    3.362340e+03
  2.813857e+02    3.671516e+03
  2.815853e+02    3.770916e+03
  2.817850e+02    3.627739e+03
  2.819846e+02    3.599719e+03
  2.821842e+02    2.921053e+03
  2.823839e+02    1.970772e+03
  2.825835e+02    1.450851e+03
  2.827831e+02    1.420035e+03
  2.829828e+02    1.389762e+03
  2.831824e+02    1.361851e+03
  2.833820e+02    1.334125e+03
  2.835817e+02    1.307119e+03
  2.837813e+02    1.281226e+03
  2.839809e+02    1.255919e+03
  2.841806e+02    1.231549e+03
  2.843802e+02    1.205964e+03
  2.845798e+02    1.182370e+03
  2.847795e+02    1.159038e+03
  2.849791e+02    1.135987e+03
  2.851788e+02    1.114995e+03
  2.853784e+02    1.093989e+03
  2.855780e+02    1.069896e+03
  2.857777e+02    1.049963e+03
  2.859773e+02    1.026700e+03
  2.861769e+02    1.007646e+03
  2.863766e+02    9.899768e+02
  2.865762e+02    9.704003e+02
  2.867758e+02    9.504935e+02
  2.869755e+02    9.329097e+02
  2.871751e+02    9.114447e+02
  2.873747e+02    8.965457e+02
  2.875744e+02    8.742715e+02
  2.877740e+02    8.558452e+02
  2.879736e+02    8.380873e+02
  2.881733e+02    8.222473e+02
  2.883729e+02    8.013165e+02
  2.885725e+02    7.834640e+02
  2.887722e+02    7.657347e+02
  2.889718e+02    7.483159e+02
  2.891715e+02    7.324763e+02
  2.893711e+02    7.149644e+02
  2.895707e+02    6.972182e+02
  2.897704e+02    6.810900e+02
  2.899700e+02    6.658340e+02
  2.901696e+02    6.500418e+02
  2.903693e+02    6.350099e+02
  2.905689e+02    6.203651e+02
  2.907685e+02    6.035013e+02
  2.909682e+02    5.898346e+02
  2.911678e+02    5.762228e+02
  2.913674e+02    5.610084e+02
  2.915671e+02    5.462842e+02
  2.917667e+02    5.329842e+02
  2.919663e+02    5.202927e+02
  2.921660e+02    5.032178e+02
  2.923656e+02    4.953616e+02
  2.925653e+02    4.842938e+02
  2.927649e+02    4.704597e+02
  2.929645e+02    4.564843e+02
  2.931642e+02    4.400837e+02
  2.933638e+02    4.135982e+02
