# == pyFAI calibration ==
# Distance Sample to Detector: 0.15 m
# PONI: 5.750e-03, 5.750e-03 m
# Rotations: 0.000000 0.000000 0.000000 rad
# 
# == Fit2d calibration ==
# Distance Sample-beamCenter: 150.000 mm
# Center: x=71.875, y=71.875 pix
# Tilt: 0.000 deg  TiltPlanRot: 0.000 deg
# 
# Detector Detector	 Spline= None	 PixelSize= 8.000e-05, 8.000e-05 m
#    Detector has a mask: False 
#    Detector has a dark current: False 
#    detector has a flat field: False 
# 
# Wavelength: 2.5079e-12 m
# Mask applied: provided
# Dark current applied: False
# Flat field applied: False
# Polarization factor: 0.99
# Normalization factor: 1.0
# --> tmp.chi
#        q_A^-1             I 
  9.981755e-02    1.454503e+02
  2.994527e-01    1.445746e+02
  4.990878e-01    1.493154e+02
  6.987229e-01    1.503470e+02
  8.983580e-01    1.386396e+02
  1.097993e+00    1.384473e+02
  1.297628e+00    1.434980e+02
  1.497263e+00    1.395573e+02
  1.696898e+00    1.413331e+02
  1.896534e+00    1.406718e+02
  2.096169e+00    1.432990e+02
  2.295804e+00    1.424927e+02
  2.495439e+00    1.438814e+02
  2.695074e+00    1.453847e+02
  2.894709e+00    1.411324e+02
  3.094344e+00    1.423320e+02
  3.293979e+00    1.455859e+02
  3.493614e+00    1.469892e+02
  3.693250e+00    1.449268e+02
  3.892885e+00    1.443212e+02
  4.092520e+00    1.432843e+02
  4.292155e+00    1.438168e+02
  4.491790e+00    1.444011e+02
  4.691425e+00    1.448795e+02
  4.891060e+00    1.426195e+02
  5.090695e+00    1.402364e+02
  5.290330e+00    1.404921e+02
  5.489965e+00    1.416531e+02
  5.689601e+00    1.437339e+02
  5.889236e+00    1.457777e+02
  6.088871e+00    1.465089e+02
  6.288506e+00    1.474213e+02
  6.488141e+00    1.488805e+02
  6.687776e+00    1.526140e+02
  6.887411e+00    1.524214e+02
  7.087046e+00    1.556354e+02
  7.286681e+00    1.579158e+02
  7.486317e+00    1.578224e+02
  7.685952e+00    1.592490e+02
  7.885587e+00    1.577643e+02
  8.085222e+00    1.560803e+02
  8.284857e+00    1.580335e+02
  8.484492e+00    1.571204e+02
  8.684127e+00    1.602570e+02
  8.883762e+00    1.618591e+02
  9.083397e+00    1.621104e+02
  9.283033e+00    1.629672e+02
  9.482668e+00    1.649322e+02
  9.682303e+00    1.647142e+02
  9.881938e+00    1.639199e+02
  1.008157e+01    1.636093e+02
  1.028121e+01    1.654696e+02
  1.048084e+01    1.663380e+02
  1.068048e+01    1.649036e+02
  1.088011e+01    1.679219e+02
  1.107975e+01    1.668672e+02
  1.127938e+01    1.685501e+02
  1.147902e+01    1.696568e+02
  1.167865e+01    1.682944e+02
  1.187829e+01    1.688913e+02
  1.207792e+01    1.707408e+02
  1.227756e+01    1.713385e+02
  1.247719e+01    1.738495e+02
  1.267683e+01    1.721086e+02
  1.287646e+01    1.708913e+02
  1.307610e+01    1.709382e+02
  1.327573e+01    1.717647e+02
  1.347537e+01    1.731904e+02
  1.367500e+01    1.731119e+02
  1.387464e+01    1.735522e+02
  1.407428e+01    1.752297e+02
  1.427391e+01    1.764075e+02
  1.447355e+01    1.763843e+02
  1.467318e+01    1.771495e+02
  1.487282e+01    1.751145e+02
  1.507245e+01    1.737161e+02
  1.527209e+01    1.748819e+02
  1.547172e+01    1.768018e+02
  1.567136e+01    1.773811e+02
  1.587099e+01    1.803010e+02
  1.607063e+01    1.810297e+02
  1.627026e+01    1.798342e+02
  1.646990e+01    1.775621e+02
  1.666953e+01    1.796832e+02
  1.686917e+01    1.853447e+02
  1.706880e+01    1.870593e+02
  1.726844e+01    1.867484e+02
  1.746807e+01    1.857285e+02
  1.766771e+01    1.856544e+02
  1.786734e+01    1.822650e+02
  1.806698e+01    1.843009e+02
  1.826661e+01    1.846770e+02
  1.846625e+01    1.858517e+02
  1.866588e+01    1.853491e+02
  1.886552e+01    1.865690e+02
  1.906515e+01    1.893728e+02
  1.926479e+01    1.892433e+02
  1.946442e+01    1.873285e+02
  1.966406e+01    1.881851e+02
  1.986369e+01    1.882639e+02
  2.006333e+01    1.891706e+02
  2.026296e+01    1.926787e+02
  2.046260e+01    1.927893e+02
  2.066223e+01    1.943657e+02
  2.086187e+01    1.955170e+02
  2.106150e+01    1.963633e+02
  2.126114e+01    1.973749e+02
  2.146077e+01    1.969214e+02
  2.166041e+01    1.960840e+02
  2.186004e+01    1.950755e+02
  2.205968e+01    1.958658e+02
  2.225931e+01    1.969937e+02
  2.245895e+01    1.967032e+02
  2.265858e+01    1.968600e+02
  2.285822e+01    1.998313e+02
  2.305786e+01    2.017232e+02
  2.325749e+01    2.040619e+02
  2.345713e+01    2.021676e+02
  2.365676e+01    1.998247e+02
  2.385640e+01    1.986072e+02
  2.405603e+01    2.006233e+02
  2.425567e+01    2.013103e+02
  2.445530e+01    2.022031e+02
  2.465494e+01    2.046508e+02
  2.485457e+01    2.061155e+02
  2.505421e+01    2.050189e+02
  2.525384e+01    2.067053e+02
  2.545348e+01    2.073448e+02
  2.565311e+01    2.064182e+02
  2.585275e+01    2.081853e+02
  2.605238e+01    2.080500e+02
  2.625202e+01    2.083962e+02
  2.645165e+01    2.097465e+02
  2.665129e+01    2.091629e+02
  2.685092e+01    2.080807e+02
  2.705056e+01    2.072293e+02
  2.725019e+01    2.097797e+02
  2.744983e+01    2.098919e+02
  2.764946e+01    2.096518e+02
  2.784910e+01    2.079296e+02
  2.804873e+01    2.080523e+02
  2.824837e+01    2.096515e+02
  2.844800e+01    2.114627e+02
  2.864764e+01    2.148936e+02
  2.884727e+01    2.153573e+02
  2.904691e+01    2.165464e+02
  2.924654e+01    2.152442e+02
  2.944618e+01    2.174688e+02
  2.964581e+01    2.184279e+02
  2.984545e+01    2.182681e+02
  3.004508e+01    2.183842e+02
  3.024472e+01    2.185892e+02
  3.044435e+01    2.193751e+02
  3.064399e+01    2.197988e+02
  3.084362e+01    2.195096e+02
  3.104326e+01    2.185374e+02
  3.124289e+01    2.189512e+02
  3.144253e+01    2.212561e+02
  3.164216e+01    2.214722e+02
  3.184180e+01    2.227912e+02
  3.204143e+01    2.234523e+02
  3.224107e+01    2.232863e+02
  3.244071e+01    2.227546e+02
  3.264034e+01    2.238158e+02
  3.283998e+01    2.241197e+02
  3.303961e+01    2.276711e+02
  3.323925e+01    2.262007e+02
  3.343888e+01    2.261342e+02
  3.363852e+01    2.263337e+02
  3.383815e+01    2.260042e+02
  3.403779e+01    2.275521e+02
  3.423742e+01    2.265394e+02
  3.443706e+01    2.264599e+02
  3.463669e+01    2.289893e+02
  3.483633e+01    2.289393e+02
  3.503596e+01    2.328463e+02
  3.523560e+01    2.322474e+02
  3.543523e+01    2.319329e+02
  3.563487e+01    2.332144e+02
  3.583450e+01    2.333969e+02
  3.603414e+01    2.347273e+02
  3.623377e+01    2.373645e+02
  3.643341e+01    2.385115e+02
  3.663304e+01    2.363846e+02
  3.683268e+01    2.374091e+02
  3.703231e+01    2.384279e+02
  3.723195e+01    2.396567e+02
  3.743158e+01    2.371301e+02
  3.763122e+01    2.360998e+02
  3.783085e+01    2.379193e+02
  3.803049e+01    2.387876e+02
  3.823012e+01    2.394505e+02
  3.842976e+01    2.408341e+02
  3.862939e+01    2.411266e+02
  3.882903e+01    2.411640e+02
  3.902866e+01    2.401752e+02
  3.922830e+01    2.421523e+02
  3.942793e+01    2.434107e+02
  3.962757e+01    2.438692e+02
  3.982720e+01    2.429341e+02
  4.002684e+01    2.425783e+02
  4.022647e+01    2.442122e+02
  4.042611e+01    2.453848e+02
  4.062574e+01    2.449757e+02
  4.082538e+01    2.473560e+02
  4.102501e+01    2.495044e+02
  4.122465e+01    2.500319e+02
  4.142428e+01    2.500284e+02
  4.162392e+01    2.496129e+02
  4.182356e+01    2.496712e+02
  4.202319e+01    2.502025e+02
  4.222283e+01    2.510816e+02
  4.242246e+01    2.512452e+02
  4.262210e+01    2.510301e+02
  4.282173e+01    2.522553e+02
  4.302137e+01    2.542222e+02
  4.322100e+01    2.548379e+02
  4.342064e+01    2.536289e+02
  4.362027e+01    2.544682e+02
  4.381991e+01    2.555212e+02
  4.401954e+01    2.573661e+02
  4.421918e+01    2.590633e+02
  4.441881e+01    2.591115e+02
  4.461845e+01    2.580389e+02
  4.481808e+01    2.590753e+02
  4.501772e+01    2.571692e+02
  4.521735e+01    2.605652e+02
  4.541699e+01    2.603743e+02
  4.561662e+01    2.608537e+02
  4.581626e+01    2.593442e+02
  4.601589e+01    2.615766e+02
  4.621553e+01    2.628105e+02
  4.641516e+01    2.643780e+02
  4.661480e+01    2.657122e+02
  4.681443e+01    2.643565e+02
  4.701407e+01    2.648754e+02
  4.721370e+01    2.665821e+02
  4.741334e+01    2.669745e+02
  4.761297e+01    2.667415e+02
  4.781261e+01    2.676158e+02
  4.801224e+01    2.691254e+02
  4.821188e+01    2.702932e+02
  4.841151e+01    2.693635e+02
  4.861115e+01    2.700158e+02
  4.881078e+01    2.717859e+02
  4.901042e+01    2.737419e+02
  4.921005e+01    2.748530e+02
  4.940969e+01    2.745275e+02
  4.960932e+01    2.721908e+02
  4.980896e+01    2.744378e+02
  5.000859e+01    2.745576e+02
  5.020823e+01    2.743957e+02
  5.040786e+01    2.764699e+02
  5.060750e+01    2.773421e+02
  5.080714e+01    2.767635e+02
  5.100677e+01    2.778821e+02
  5.120641e+01    2.803596e+02
  5.140604e+01    2.810831e+02
  5.160568e+01    2.819171e+02
  5.180531e+01    2.835861e+02
  5.200495e+01    2.831454e+02
  5.220458e+01    2.817245e+02
  5.240422e+01    2.815925e+02
  5.260385e+01    2.834201e+02
  5.280349e+01    2.842418e+02
  5.300312e+01    2.838595e+02
  5.320276e+01    2.843361e+02
  5.340239e+01    2.874463e+02
  5.360203e+01    2.870839e+02
  5.380166e+01    2.872197e+02
  5.400130e+01    2.884638e+02
  5.420093e+01    2.868787e+02
  5.440057e+01    2.884992e+02
  5.460020e+01    2.889979e+02
  5.479984e+01    2.900381e+02
  5.499947e+01    2.897885e+02
  5.519911e+01    2.913955e+02
  5.539874e+01    2.941010e+02
  5.559838e+01    2.938393e+02
  5.579801e+01    2.944191e+02
  5.599765e+01    2.958408e+02
  5.619728e+01    2.977897e+02
  5.639692e+01    2.995210e+02
  5.659655e+01    2.995026e+02
  5.679619e+01    2.982722e+02
  5.699582e+01    2.980492e+02
  5.719546e+01    2.988425e+02
  5.739509e+01    3.016223e+02
  5.759473e+01    3.040728e+02
  5.779436e+01    3.027964e+02
  5.799400e+01    3.027053e+02
  5.819363e+01    3.028788e+02
  5.839327e+01    3.025018e+02
  5.859290e+01    3.044215e+02
  5.879254e+01    3.059968e+02
  5.899217e+01    3.063753e+02
  5.919181e+01    3.074815e+02
  5.939144e+01    3.081785e+02
  5.959108e+01    3.073913e+02
  5.979071e+01    3.069892e+02
  5.999035e+01    3.093203e+02
  6.018999e+01    3.120951e+02
  6.038962e+01    3.117137e+02
  6.058926e+01    3.109554e+02
  6.078889e+01    3.115757e+02
  6.098853e+01    3.143272e+02
  6.118816e+01    3.143896e+02
  6.138780e+01    3.157910e+02
  6.158743e+01    3.161143e+02
  6.178707e+01    3.165227e+02
  6.198670e+01    3.164070e+02
  6.218634e+01    3.158259e+02
  6.238597e+01    3.180796e+02
  6.258561e+01    3.196174e+02
  6.278524e+01    3.209496e+02
  6.298488e+01    3.197306e+02
  6.318451e+01    3.214908e+02
  6.338415e+01    3.214234e+02
  6.358378e+01    3.221999e+02
  6.378342e+01    3.233843e+02
  6.398305e+01    3.244196e+02
  6.418269e+01    3.249719e+02
  6.438232e+01    3.259499e+02
  6.458196e+01    3.270924e+02
  6.478159e+01    3.274348e+02
  6.498123e+01    3.296762e+02
  6.518086e+01    3.310430e+02
  6.538050e+01    3.304669e+02
  6.558013e+01    3.307951e+02
  6.577977e+01    3.297415e+02
  6.597940e+01    3.300490e+02
  6.617904e+01    3.311812e+02
  6.637867e+01    3.333889e+02
  6.657831e+01    3.349696e+02
  6.677794e+01    3.346852e+02
  6.697758e+01    3.354162e+02
  6.717721e+01    3.372396e+02
  6.737685e+01    3.389883e+02
  6.757648e+01    3.386278e+02
  6.777612e+01    3.386097e+02
  6.797575e+01    3.401285e+02
  6.817539e+01    3.400355e+02
  6.837502e+01    3.426156e+02
  6.857466e+01    3.439773e+02
  6.877429e+01    3.433834e+02
  6.897393e+01    3.421921e+02
  6.917357e+01    3.436619e+02
  6.937320e+01    3.453609e+02
  6.957284e+01    3.466650e+02
  6.977247e+01    3.475238e+02
  6.997211e+01    3.497836e+02
  7.017174e+01    3.502375e+02
  7.037138e+01    3.497000e+02
  7.057101e+01    3.511644e+02
  7.077065e+01    3.524238e+02
  7.097028e+01    3.544751e+02
  7.116992e+01    3.552124e+02
  7.136955e+01    3.554951e+02
  7.156919e+01    3.566175e+02
  7.176882e+01    3.560553e+02
  7.196846e+01    3.592442e+02
  7.216809e+01    3.577255e+02
  7.236773e+01    3.586596e+02
  7.256736e+01    3.595253e+02
  7.276700e+01    3.597765e+02
  7.296663e+01    3.604465e+02
  7.316627e+01    3.613421e+02
  7.336590e+01    3.611100e+02
  7.356554e+01    3.633960e+02
  7.376517e+01    3.644367e+02
  7.396481e+01    3.666789e+02
  7.416444e+01    3.673846e+02
  7.436408e+01    3.679211e+02
  7.456371e+01    3.683092e+02
  7.476335e+01    3.706561e+02
  7.496298e+01    3.714962e+02
  7.516262e+01    3.737890e+02
  7.536225e+01    3.746990e+02
  7.556189e+01    3.762348e+02
  7.576152e+01    3.763419e+02
  7.596116e+01    3.776942e+02
  7.616079e+01    3.795287e+02
  7.636043e+01    3.785063e+02
  7.656006e+01    3.780175e+02
  7.675970e+01    3.796340e+02
  7.695933e+01    3.823994e+02
  7.715897e+01    3.833589e+02
  7.735860e+01    3.830690e+02
  7.755824e+01    3.850096e+02
  7.775787e+01    3.850201e+02
  7.795751e+01    3.855086e+02
  7.815714e+01    3.851514e+02
  7.835678e+01    3.894837e+02
  7.855642e+01    3.907962e+02
  7.875605e+01    3.920342e+02
  7.895569e+01    3.930637e+02
  7.915532e+01    3.941931e+02
  7.935496e+01    3.945431e+02
  7.955459e+01    3.944549e+02
  7.975423e+01    3.958112e+02
  7.995386e+01    3.970818e+02
  8.015350e+01    3.993836e+02
  8.035313e+01    3.997364e+02
  8.055277e+01    4.001124e+02
  8.075240e+01    4.019164e+02
  8.095204e+01    4.019919e+02
  8.115167e+01    4.045085e+02
  8.135131e+01    4.056139e+02
  8.155094e+01    4.064504e+02
  8.175058e+01    4.092068e+02
  8.195021e+01    4.114812e+02
  8.214985e+01    4.110588e+02
  8.234948e+01    4.130876e+02
  8.254912e+01    4.148255e+02
  8.274875e+01    4.150968e+02
  8.294839e+01    4.147428e+02
  8.314802e+01    4.177116e+02
  8.334766e+01    4.187355e+02
  8.354729e+01    4.204441e+02
  8.374693e+01    4.215998e+02
  8.394656e+01    4.218169e+02
  8.414620e+01    4.233745e+02
  8.434583e+01    4.249803e+02
  8.454547e+01    4.265664e+02
  8.474510e+01    4.268221e+02
  8.494474e+01    4.271828e+02
  8.514437e+01    4.286059e+02
  8.534401e+01    4.288826e+02
  8.554364e+01    4.313828e+02
  8.574328e+01    4.327715e+02
  8.594291e+01    4.335177e+02
  8.614255e+01    4.344004e+02
  8.634218e+01    4.366578e+02
  8.654182e+01    4.375262e+02
  8.674145e+01    4.402804e+02
  8.694109e+01    4.430582e+02
  8.714072e+01    4.425755e+02
  8.734036e+01    4.436285e+02
  8.753999e+01    4.442025e+02
  8.773963e+01    4.448612e+02
  8.793927e+01    4.467477e+02
  8.813890e+01    4.503902e+02
  8.833854e+01    4.512940e+02
  8.853817e+01    4.517344e+02
  8.873781e+01    4.545701e+02
  8.893744e+01    4.555800e+02
  8.913708e+01    4.561468e+02
  8.933671e+01    4.566675e+02
  8.953635e+01    4.595461e+02
  8.973598e+01    4.632159e+02
  8.993562e+01    4.630187e+02
  9.013525e+01    4.626044e+02
  9.033489e+01    4.664881e+02
  9.053452e+01    4.680110e+02
  9.073416e+01    4.693878e+02
  9.093379e+01    4.710855e+02
  9.113343e+01    4.724542e+02
  9.133306e+01    4.732335e+02
  9.153270e+01    4.765676e+02
  9.173233e+01    4.772767e+02
  9.193197e+01    4.802995e+02
  9.213160e+01    4.820865e+02
  9.233124e+01    4.825815e+02
  9.253087e+01    4.830238e+02
  9.273051e+01    4.831530e+02
  9.293014e+01    4.852430e+02
  9.312978e+01    4.874939e+02
  9.332941e+01    4.897378e+02
  9.352905e+01    4.911967e+02
  9.372868e+01    4.920580e+02
  9.392832e+01    4.932614e+02
  9.412795e+01    4.931411e+02
  9.432759e+01    4.963850e+02
  9.452722e+01    4.988886e+02
  9.472686e+01    5.001641e+02
  9.492649e+01    5.038251e+02
  9.512613e+01    5.024118e+02
  9.532576e+01    5.027390e+02
  9.552540e+01    5.053161e+02
  9.572503e+01    5.075739e+02
  9.592467e+01    5.097820e+02
  9.612430e+01    5.107067e+02
  9.632394e+01    5.129838e+02
  9.652357e+01    5.155396e+02
  9.672321e+01    5.165994e+02
  9.692285e+01    5.185528e+02
  9.712248e+01    5.199681e+02
  9.732212e+01    5.223383e+02
  9.752175e+01    5.265458e+02
  9.772139e+01    5.278898e+02
  9.792102e+01    5.273962e+02
  9.812066e+01    5.279102e+02
  9.832029e+01    5.320712e+02
  9.851993e+01    5.353469e+02
  9.871956e+01    5.364711e+02
  9.891920e+01    5.385140e+02
  9.911883e+01    5.381115e+02
  9.931847e+01    5.410499e+02
  9.951810e+01    5.427272e+02
  9.971774e+01    5.433421e+02
  9.991737e+01    5.448121e+02
  1.001170e+02    5.472557e+02
  1.003166e+02    5.509064e+02
  1.005163e+02    5.512783e+02
  1.007159e+02    5.527214e+02
  1.009155e+02    5.550316e+02
  1.011152e+02    5.564213e+02
  1.013148e+02    5.581362e+02
  1.015145e+02    5.591823e+02
  1.017141e+02    5.618020e+02
  1.019137e+02    5.647433e+02
  1.021134e+02    5.682322e+02
  1.023130e+02    5.692585e+02
  1.025126e+02    5.706137e+02
  1.027123e+02    5.720445e+02
  1.029119e+02    5.746930e+02
  1.031115e+02    5.758898e+02
  1.033112e+02    5.768599e+02
  1.035108e+02    5.783257e+02
  1.037104e+02    5.801308e+02
  1.039101e+02    5.832830e+02
  1.041097e+02    5.857474e+02
  1.043093e+02    5.896590e+02
  1.045090e+02    5.900293e+02
  1.047086e+02    5.925487e+02
  1.049082e+02    5.952678e+02
  1.051079e+02    5.963645e+02
  1.053075e+02    5.971625e+02
  1.055072e+02    6.001904e+02
  1.057068e+02    6.014332e+02
  1.059064e+02    6.023595e+02
  1.061061e+02    6.047774e+02
  1.063057e+02    6.094219e+02
  1.065053e+02    6.104537e+02
  1.067050e+02    6.124828e+02
  1.069046e+02    6.149639e+02
  1.071042e+02    6.167531e+02
  1.073039e+02    6.169316e+02
  1.075035e+02    6.191505e+02
  1.077031e+02    6.231052e+02
  1.079028e+02    6.232081e+02
  1.081024e+02    6.248207e+02
  1.083020e+02    6.282183e+02
  1.085017e+02    6.285748e+02
  1.087013e+02    6.305085e+02
  1.089010e+02    6.326200e+02
  1.091006e+02    6.371625e+02
  1.093002e+02    6.387366e+02
  1.094999e+02    6.381513e+02
  1.096995e+02    6.395981e+02
  1.098991e+02    6.427849e+02
  1.100988e+02    6.462794e+02
  1.102984e+02    6.476516e+02
  1.104980e+02    6.494033e+02
  1.106977e+02    6.530642e+02
  1.108973e+02    6.551867e+02
  1.110969e+02    6.552118e+02
  1.112966e+02    6.589022e+02
  1.114962e+02    6.618558e+02
  1.116958e+02    6.653184e+02
  1.118955e+02    6.665013e+02
  1.120951e+02    6.678110e+02
  1.122947e+02    6.680367e+02
  1.124944e+02    6.717397e+02
  1.126940e+02    6.763943e+02
  1.128937e+02    6.764478e+02
  1.130933e+02    6.769059e+02
  1.132929e+02    6.791617e+02
  1.134926e+02    6.831520e+02
  1.136922e+02    6.862592e+02
  1.138918e+02    6.851758e+02
  1.140915e+02    6.862510e+02
  1.142911e+02    6.892600e+02
  1.144907e+02    6.902781e+02
  1.146904e+02    6.927971e+02
  1.148900e+02    6.976688e+02
  1.150896e+02    6.974256e+02
  1.152893e+02    6.992404e+02
  1.154889e+02    7.029653e+02
  1.156885e+02    7.051132e+02
  1.158882e+02    7.065174e+02
  1.160878e+02    7.093505e+02
  1.162875e+02    7.113571e+02
  1.164871e+02    7.130612e+02
  1.166867e+02    7.150927e+02
  1.168864e+02    7.180976e+02
  1.170860e+02    7.207971e+02
  1.172856e+02    7.217975e+02
  1.174853e+02    7.200280e+02
  1.176849e+02    7.238279e+02
  1.178845e+02    7.295702e+02
  1.180842e+02    7.311775e+02
  1.182838e+02    7.321716e+02
  1.184834e+02    7.336885e+02
  1.186831e+02    7.343752e+02
  1.188827e+02    7.356155e+02
  1.190823e+02    7.405588e+02
  1.192820e+02    7.443968e+02
  1.194816e+02    7.461428e+02
  1.196812e+02    7.480378e+02
  1.198809e+02    7.500805e+02
  1.200805e+02    7.514373e+02
  1.202802e+02    7.532643e+02
  1.204798e+02    7.566505e+02
  1.206794e+02    7.600604e+02
  1.208791e+02    7.649551e+02
  1.210787e+02    7.653824e+02
  1.212783e+02    7.636071e+02
  1.214780e+02    7.646518e+02
  1.216776e+02    7.698389e+02
  1.218772e+02    7.736289e+02
  1.220769e+02    7.754568e+02
  1.222765e+02    7.758096e+02
  1.224761e+02    7.793137e+02
  1.226758e+02    7.816489e+02
  1.228754e+02    7.850670e+02
  1.230750e+02    7.876947e+02
  1.232747e+02    7.896301e+02
  1.234743e+02    7.929321e+02
  1.236739e+02    7.943608e+02
  1.238736e+02    7.969149e+02
  1.240732e+02    8.007880e+02
  1.242729e+02    8.028895e+02
  1.244725e+02    8.033481e+02
  1.246721e+02    8.060363e+02
  1.248718e+02    8.067724e+02
  1.250714e+02    8.071942e+02
  1.252710e+02    8.114198e+02
  1.254707e+02    8.120001e+02
  1.256703e+02    8.138997e+02
  1.258699e+02    8.193945e+02
  1.260696e+02    8.240997e+02
  1.262692e+02    8.260284e+02
  1.264688e+02    8.280445e+02
  1.266685e+02    8.303798e+02
  1.268681e+02    8.304093e+02
  1.270677e+02    8.341393e+02
  1.272674e+02    8.381397e+02
  1.274670e+02    8.402516e+02
  1.276667e+02    8.436377e+02
  1.278663e+02    8.469278e+02
  1.280659e+02    8.491129e+02
  1.282656e+02    8.525118e+02
  1.284652e+02    8.540834e+02
  1.286648e+02    8.551981e+02
  1.288645e+02    8.571868e+02
  1.290641e+02    8.599221e+02
  1.292637e+02    8.645296e+02
  1.294634e+02    8.680480e+02
  1.296630e+02    8.708112e+02
  1.298626e+02    8.739125e+02
  1.300623e+02    8.766996e+02
  1.302619e+02    8.786231e+02
  1.304615e+02    8.818578e+02
  1.306612e+02    8.844613e+02
  1.308608e+02    8.860521e+02
  1.310604e+02    8.886918e+02
  1.312601e+02    8.922878e+02
  1.314597e+02    8.951642e+02
  1.316594e+02    8.980055e+02
  1.318590e+02    9.009858e+02
  1.320586e+02    9.030528e+02
  1.322583e+02    9.044168e+02
  1.324579e+02    9.115383e+02
  1.326575e+02    9.123368e+02
  1.328572e+02    9.127043e+02
  1.330568e+02    9.188346e+02
  1.332564e+02    9.206846e+02
  1.334561e+02    9.258573e+02
  1.336557e+02    9.291966e+02
  1.338553e+02    9.306556e+02
  1.340550e+02    9.353649e+02
  1.342546e+02    9.392384e+02
  1.344542e+02    9.441942e+02
  1.346539e+02    9.463669e+02
  1.348535e+02    9.496703e+02
  1.350532e+02    9.517466e+02
  1.352528e+02    9.536910e+02
  1.354524e+02    9.579804e+02
  1.356521e+02    9.626472e+02
  1.358517e+02    9.647977e+02
  1.360513e+02    9.683569e+02
  1.362510e+02    9.708914e+02
  1.364506e+02    9.726008e+02
  1.366502e+02    9.776669e+02
  1.368499e+02    9.833468e+02
  1.370495e+02    9.865275e+02
  1.372491e+02    9.878212e+02
  1.374488e+02    9.955444e+02
  1.376484e+02    9.990316e+02
  1.378480e+02    1.001568e+03
  1.380477e+02    1.005347e+03
  1.382473e+02    1.007856e+03
  1.384469e+02    1.010310e+03
  1.386466e+02    1.014441e+03
  1.388462e+02    1.018241e+03
  1.390459e+02    1.023312e+03
  1.392455e+02    1.028646e+03
  1.394451e+02    1.032039e+03
  1.396448e+02    1.035215e+03
  1.398444e+02    1.038931e+03
  1.400440e+02    1.042043e+03
  1.402437e+02    1.045917e+03
  1.404433e+02    1.052851e+03
  1.406429e+02    1.057249e+03
  1.408426e+02    1.058658e+03
  1.410422e+02    1.063750e+03
  1.412418e+02    1.066958e+03
  1.414415e+02    1.071638e+03
  1.416411e+02    1.074969e+03
  1.418407e+02    1.078284e+03
  1.420404e+02    1.084909e+03
  1.422400e+02    1.088218e+03
  1.424396e+02    1.092103e+03
  1.426393e+02    1.095614e+03
  1.428389e+02    1.099169e+03
  1.430386e+02    1.105374e+03
  1.432382e+02    1.110083e+03
  1.434378e+02    1.113941e+03
  1.436375e+02    1.116893e+03
  1.438371e+02    1.120840e+03
  1.440367e+02    1.124759e+03
  1.442364e+02    1.129349e+03
  1.444360e+02    1.136616e+03
  1.446356e+02    1.141859e+03
  1.448353e+02    1.144007e+03
  1.450349e+02    1.150606e+03
  1.452345e+02    1.155487e+03
  1.454342e+02    1.158517e+03
  1.456338e+02    1.163546e+03
  1.458334e+02    1.169399e+03
  1.460331e+02    1.174143e+03
  1.462327e+02    1.179412e+03
  1.464324e+02    1.182664e+03
  1.466320e+02    1.187437e+03
  1.468316e+02    1.194544e+03
  1.470313e+02    1.200484e+03
  1.472309e+02    1.205801e+03
  1.474305e+02    1.210285e+03
  1.476302e+02    1.213468e+03
  1.478298e+02    1.218026e+03
  1.480294e+02    1.223050e+03
  1.482291e+02    1.229200e+03
  1.484287e+02    1.233921e+03
  1.486283e+02    1.239367e+03
  1.488280e+02    1.245450e+03
  1.490276e+02    1.250270e+03
  1.492272e+02    1.258228e+03
  1.494269e+02    1.264104e+03
  1.496265e+02    1.268774e+03
  1.498261e+02    1.273584e+03
  1.500258e+02    1.278559e+03
  1.502254e+02    1.284658e+03
  1.504251e+02    1.290247e+03
  1.506247e+02    1.296594e+03
  1.508243e+02    1.304817e+03
  1.510240e+02    1.310680e+03
  1.512236e+02    1.315225e+03
  1.514232e+02    1.322288e+03
  1.516229e+02    1.329372e+03
  1.518225e+02    1.333114e+03
  1.520221e+02    1.337700e+03
  1.522218e+02    1.343274e+03
  1.524214e+02    1.348601e+03
  1.526210e+02    1.355754e+03
  1.528207e+02    1.363233e+03
  1.530203e+02    1.367286e+03
  1.532199e+02    1.374126e+03
  1.534196e+02    1.381014e+03
  1.536192e+02    1.389971e+03
  1.538189e+02    1.394134e+03
  1.540185e+02    1.399626e+03
  1.542181e+02    1.405593e+03
  1.544178e+02    1.413294e+03
  1.546174e+02    1.419777e+03
  1.548170e+02    1.426312e+03
  1.550167e+02    1.433365e+03
  1.552163e+02    1.440841e+03
  1.554159e+02    1.444751e+03
  1.556156e+02    1.452550e+03
  1.558152e+02    1.462040e+03
  1.560148e+02    1.469445e+03
  1.562145e+02    1.475263e+03
  1.564141e+02    1.482152e+03
  1.566137e+02    1.490721e+03
  1.568134e+02    1.496315e+03
  1.570130e+02    1.502428e+03
  1.572126e+02    1.510019e+03
  1.574123e+02    1.517267e+03
  1.576119e+02    1.523790e+03
  1.578116e+02    1.531471e+03
  1.580112e+02    1.538343e+03
  1.582108e+02    1.545152e+03
  1.584105e+02    1.552953e+03
  1.586101e+02    1.563727e+03
  1.588097e+02    1.569361e+03
  1.590094e+02    1.574070e+03
  1.592090e+02    1.583929e+03
  1.594086e+02    1.592401e+03
  1.596083e+02    1.595642e+03
  1.598079e+02    1.605191e+03
  1.600075e+02    1.614321e+03
  1.602072e+02    1.621342e+03
  1.604068e+02    1.630458e+03
  1.606064e+02    1.639011e+03
  1.608061e+02    1.643490e+03
  1.610057e+02    1.654127e+03
  1.612053e+02    1.661251e+03
  1.614050e+02    1.667497e+03
  1.616046e+02    1.675911e+03
  1.618043e+02    1.685247e+03
  1.620039e+02    1.693904e+03
  1.622035e+02    1.702196e+03
  1.624032e+02    1.709381e+03
  1.626028e+02    1.717151e+03
  1.628024e+02    1.728422e+03
  1.630021e+02    1.737678e+03
  1.632017e+02    1.742102e+03
  1.634013e+02    1.751539e+03
  1.636010e+02    1.763062e+03
  1.638006e+02    1.769217e+03
  1.640002e+02    1.776212e+03
  1.641999e+02    1.789468e+03
  1.643995e+02    1.795059e+03
  1.645991e+02    1.803211e+03
  1.647988e+02    1.813243e+03
  1.649984e+02    1.821060e+03
  1.651981e+02    1.830551e+03
  1.653977e+02    1.838747e+03
  1.655973e+02    1.849818e+03
  1.657970e+02    1.862539e+03
  1.659966e+02    1.869912e+03
  1.661962e+02    1.878716e+03
  1.663959e+02    1.888493e+03
  1.665955e+02    1.894898e+03
  1.667951e+02    1.905952e+03
  1.669948e+02    1.917594e+03
  1.671944e+02    1.926182e+03
  1.673940e+02    1.934074e+03
  1.675937e+02    1.942976e+03
  1.677933e+02    1.954960e+03
  1.679929e+02    1.964640e+03
  1.681926e+02    1.975686e+03
  1.683922e+02    1.985140e+03
  1.685918e+02    1.994732e+03
  1.687915e+02    2.004549e+03
  1.689911e+02    2.014720e+03
  1.691908e+02    2.025491e+03
  1.693904e+02    2.037183e+03
  1.695900e+02    2.049748e+03
  1.697897e+02    2.057213e+03
  1.699893e+02    2.069133e+03
  1.701889e+02    2.080208e+03
  1.703886e+02    2.088737e+03
  1.705882e+02    2.104837e+03
  1.707878e+02    2.112371e+03
  1.709875e+02    2.123770e+03
  1.711871e+02    2.132569e+03
  1.713867e+02    2.141116e+03
  1.715864e+02    2.150525e+03
  1.717860e+02    2.163416e+03
  1.719856e+02    2.173740e+03
  1.721853e+02    2.186544e+03
  1.723849e+02    2.196038e+03
  1.725846e+02    2.208751e+03
  1.727842e+02    2.219947e+03
  1.729838e+02    2.228155e+03
  1.731835e+02    2.239976e+03
  1.733831e+02    2.252957e+03
  1.735827e+02    2.264489e+03
  1.737824e+02    2.276019e+03
  1.739820e+02    2.286236e+03
  1.741816e+02    2.294217e+03
  1.743813e+02    2.309013e+03
  1.745809e+02    2.322521e+03
  1.747805e+02    2.329248e+03
  1.749802e+02    2.341064e+03
  1.751798e+02    2.353198e+03
  1.753794e+02    2.363302e+03
  1.755791e+02    2.374359e+03
  1.757787e+02    2.389213e+03
  1.759783e+02    2.401903e+03
  1.761780e+02    2.408929e+03
  1.763776e+02    2.421388e+03
  1.765773e+02    2.431029e+03
  1.767769e+02    2.446698e+03
  1.769765e+02    2.456245e+03
  1.771762e+02    2.468796e+03
  1.773758e+02    2.479093e+03
  1.775754e+02    2.490786e+03
  1.777751e+02    2.501866e+03
  1.779747e+02    2.514339e+03
  1.781743e+02    2.523331e+03
  1.783740e+02    2.537367e+03
  1.785736e+02    2.551013e+03
  1.787732e+02    2.563459e+03
  1.789729e+02    2.574018e+03
  1.791725e+02    2.587697e+03
  1.793721e+02    2.599232e+03
  1.795718e+02    2.607469e+03
  1.797714e+02    2.620562e+03
  1.799711e+02    2.635167e+03
  1.801707e+02    2.647028e+03
  1.803703e+02    2.656085e+03
  1.805700e+02    2.669772e+03
  1.807696e+02    2.686087e+03
  1.809692e+02    2.697322e+03
  1.811689e+02    2.712052e+03
  1.813685e+02    2.720515e+03
  1.815681e+02    2.732694e+03
  1.817678e+02    2.744610e+03
  1.819674e+02    2.755351e+03
  1.821670e+02    2.768020e+03
  1.823667e+02    2.781488e+03
  1.825663e+02    2.793955e+03
  1.827659e+02    2.809350e+03
  1.829656e+02    2.821963e+03
  1.831652e+02    2.835382e+03
  1.833648e+02    2.847802e+03
  1.835645e+02    2.861349e+03
  1.837641e+02    2.876013e+03
  1.839638e+02    2.888294e+03
  1.841634e+02    2.902145e+03
  1.843630e+02    2.916510e+03
  1.845627e+02    2.929336e+03
  1.847623e+02    2.944753e+03
  1.849619e+02    2.958216e+03
  1.851616e+02    2.975779e+03
  1.853612e+02    2.988709e+03
  1.855608e+02    2.999862e+03
  1.857605e+02    3.015256e+03
  1.859601e+02    3.032091e+03
  1.861597e+02    3.048296e+03
  1.863594e+02    3.063462e+03
  1.865590e+02    3.076280e+03
  1.867586e+02    3.093165e+03
  1.869583e+02    3.108607e+03
  1.871579e+02    3.126322e+03
  1.873575e+02    3.142618e+03
  1.875572e+02    3.156466e+03
  1.877568e+02    3.169908e+03
  1.879565e+02    3.185879e+03
  1.881561e+02    3.200445e+03
  1.883557e+02    3.219484e+03
  1.885554e+02    3.237560e+03
  1.887550e+02    3.255500e+03
  1.889546e+02    3.273036e+03
  1.891543e+02    3.291060e+03
  1.893539e+02    3.307704e+03
  1.895535e+02    3.321449e+03
  1.897532e+02    3.341977e+03
  1.899528e+02    3.363272e+03
  1.901524e+02    3.382460e+03
  1.903521e+02    3.401206e+03
  1.905517e+02    3.419474e+03
  1.907513e+02    3.436789e+03
  1.909510e+02    3.457522e+03
  1.911506e+02    3.479715e+03
  1.913503e+02    3.503389e+03
  1.915499e+02    3.520826e+03
  1.917495e+02    3.538842e+03
  1.919492e+02    3.560679e+03
  1.921488e+02    3.582111e+03
  1.923484e+02    3.603211e+03
  1.925481e+02    3.626633e+03
  1.927477e+02    3.651375e+03
  1.929473e+02    3.673628e+03
  1.931470e+02    3.694580e+03
  1.933466e+02    3.719458e+03
  1.935462e+02    3.746774e+03
  1.937459e+02    3.769953e+03
  1.939455e+02    3.796189e+03
  1.941451e+02    3.821052e+03
  1.943448e+02    3.845859e+03
  1.945444e+02    3.874500e+03
  1.947440e+02    3.904007e+03
  1.949437e+02    3.929012e+03
  1.951433e+02    3.958156e+03
  1.953430e+02    3.987926e+03
  1.955426e+02    4.016760e+03
  1.957422e+02    4.042039e+03
  1.959419e+02    4.071577e+03
  1.961415e+02    4.106132e+03
  1.963411e+02    4.138132e+03
  1.965408e+02    4.171367e+03
  1.967404e+02    4.203731e+03
  1.969400e+02    4.237039e+03
  1.971397e+02    4.273424e+03
  1.973393e+02    4.313380e+03
  1.975389e+02    4.350226e+03
  1.977386e+02    4.386354e+03
  1.979382e+02    4.425462e+03
  1.981378e+02    4.459942e+03
  1.983375e+02    4.501371e+03
  1.985371e+02    4.542567e+03
  1.987368e+02    4.582429e+03
  1.989364e+02    4.626501e+03
  1.991360e+02    4.668438e+03
  1.993357e+02    4.714150e+03
  1.995353e+02    4.756538e+03
  1.997349e+02    4.800072e+03
  1.999346e+02    4.847124e+03
  2.001342e+02    4.891709e+03
  2.003338e+02    4.934929e+03
  2.005335e+02    4.985460e+03
  2.007331e+02    5.036579e+03
  2.009327e+02    5.080881e+03
  2.011324e+02    5.131640e+03
  2.013320e+02    5.182427e+03
  2.015316e+02    5.231201e+03
  2.017313e+02    5.280522e+03
  2.019309e+02    5.331800e+03
  2.021305e+02    5.381745e+03
  2.023302e+02    5.437599e+03
  2.025298e+02    5.489317e+03
  2.027295e+02    5.537848e+03
  2.029291e+02    5.592542e+03
  2.031287e+02    5.644667e+03
  2.033284e+02    5.697116e+03
  2.035280e+02    5.751345e+03
  2.037276e+02    5.801135e+03
  2.039273e+02    5.854158e+03
  2.041269e+02    5.914913e+03
  2.043265e+02    5.966597e+03
  2.045262e+02    6.022670e+03
  2.047258e+02    6.073528e+03
  2.049254e+02    6.130489e+03
  2.051251e+02    6.186530e+03
  2.053247e+02    6.239853e+03
  2.055243e+02    6.293514e+03
  2.057240e+02    6.346546e+03
  2.059236e+02    6.395121e+03
  2.061232e+02    6.453188e+03
  2.063229e+02    6.506475e+03
  2.065225e+02    6.558776e+03
  2.067222e+02    6.617458e+03
  2.069218e+02    6.667600e+03
  2.071214e+02    6.720392e+03
  2.073211e+02    6.772956e+03
  2.075207e+02    6.828153e+03
  2.077203e+02    6.881947e+03
  2.079200e+02    6.925438e+03
  2.081196e+02    6.974889e+03
  2.083192e+02    7.029112e+03
  2.085189e+02    7.083706e+03
  2.087185e+02    7.131031e+03
  2.089181e+02    7.182732e+03
  2.091178e+02    7.232375e+03
  2.093174e+02    7.280094e+03
  2.095170e+02    7.331633e+03
  2.097167e+02    7.379586e+03
  2.099163e+02    7.431122e+03
  2.101160e+02    7.484262e+03
  2.103156e+02    7.526082e+03
  2.105152e+02    7.576764e+03
  2.107149e+02    7.629438e+03
  2.109145e+02    7.674969e+03
  2.111141e+02    7.723624e+03
  2.113138e+02    7.768506e+03
  2.115134e+02    7.818418e+03
  2.117130e+02    7.861385e+03
  2.119127e+02    7.913105e+03
  2.121123e+02    7.961353e+03
  2.123119e+02    8.012542e+03
  2.125116e+02    8.058945e+03
  2.127112e+02    8.106339e+03
  2.129108e+02    8.159233e+03
  2.131105e+02    8.209815e+03
  2.133101e+02    8.262506e+03
  2.135097e+02    8.308335e+03
  2.137094e+02    8.358940e+03
  2.139090e+02    8.409195e+03
  2.141087e+02    8.464799e+03
  2.143083e+02    8.519869e+03
  2.145079e+02    8.570058e+03
  2.147076e+02    8.625681e+03
  2.149072e+02    8.673330e+03
  2.151068e+02    8.737300e+03
  2.153065e+02    8.789531e+03
  2.155061e+02    8.841331e+03
  2.157057e+02    8.896545e+03
  2.159054e+02    8.954565e+03
  2.161050e+02    9.017716e+03
  2.163046e+02    9.073246e+03
  2.165043e+02    9.130604e+03
  2.167039e+02    9.191464e+03
  2.169035e+02    9.262315e+03
  2.171032e+02    9.318276e+03
  2.173028e+02    9.379092e+03
  2.175025e+02    9.441150e+03
  2.177021e+02    9.505280e+03
  2.179017e+02    9.571844e+03
  2.181014e+02    9.636404e+03
  2.183010e+02    9.703790e+03
  2.185006e+02    9.778033e+03
  2.187003e+02    9.840836e+03
  2.188999e+02    9.906266e+03
  2.190995e+02    9.981660e+03
  2.192992e+02    1.006215e+04
  2.194988e+02    1.013203e+04
  2.196984e+02    1.021147e+04
  2.198981e+02    1.028469e+04
  2.200977e+02    1.036724e+04
  2.202973e+02    1.045907e+04
  2.204970e+02    1.053728e+04
  2.206966e+02    1.062719e+04
  2.208962e+02    1.072133e+04
  2.210959e+02    1.081290e+04
  2.212955e+02    1.090527e+04
  2.214952e+02    1.100062e+04
  2.216948e+02    1.109608e+04
  2.218944e+02    1.120623e+04
  2.220941e+02    1.131007e+04
  2.222937e+02    1.142290e+04
  2.224933e+02    1.152915e+04
  2.226930e+02    1.165229e+04
  2.228926e+02    1.175680e+04
  2.230922e+02    1.188288e+04
  2.232919e+02    1.201256e+04
  2.234915e+02    1.214406e+04
  2.236911e+02    1.225302e+04
  2.238908e+02    1.232426e+04
  2.240904e+02    1.240468e+04
  2.242900e+02    1.248541e+04
  2.244897e+02    1.256825e+04
  2.246893e+02    1.266043e+04
  2.248889e+02    1.276096e+04
  2.250886e+02    1.287013e+04
  2.252882e+02    1.300035e+04
  2.254879e+02    1.311079e+04
  2.256875e+02    1.322080e+04
  2.258871e+02    1.336620e+04
  2.260868e+02    1.351849e+04
  2.262864e+02    1.367321e+04
  2.264860e+02    1.383733e+04
  2.266857e+02    1.399665e+04
  2.268853e+02    1.417015e+04
  2.270849e+02    1.434614e+04
  2.272846e+02    1.433591e+04
  2.274842e+02    1.140815e+04
  2.276838e+02    9.078024e+03
  2.278835e+02    7.941054e+03
  2.280831e+02    7.957488e+03
  2.282827e+02    7.989417e+03
  2.284824e+02    8.032857e+03
  2.286820e+02    8.073808e+03
  2.288817e+02    8.122707e+03
  2.290813e+02    8.154502e+03
  2.292809e+02    8.185204e+03
  2.294806e+02    8.215653e+03
  2.296802e+02    8.236815e+03
  2.298798e+02    8.303560e+03
  2.300795e+02    8.357272e+03
  2.302791e+02    8.378806e+03
  2.304787e+02    8.385795e+03
  2.306784e+02    8.371414e+03
  2.308780e+02    8.277396e+03
  2.310776e+02    8.201854e+03
  2.312773e+02    8.120061e+03
  2.314769e+02    8.040790e+03
  2.316765e+02    8.028975e+03
  2.318762e+02    8.018751e+03
  2.320758e+02    7.979845e+03
  2.322754e+02    7.958407e+03
  2.324751e+02    7.933829e+03
  2.326747e+02    7.892366e+03
  2.328744e+02    7.831403e+03
  2.330740e+02    7.811322e+03
  2.332736e+02    7.821375e+03
  2.334733e+02    7.770169e+03
  2.336729e+02    7.738281e+03
  2.338725e+02    7.712699e+03
  2.340722e+02    7.758515e+03
  2.342718e+02    7.728640e+03
  2.344714e+02    7.716106e+03
  2.346711e+02    7.707886e+03
  2.348707e+02    7.687071e+03
  2.350703e+02    7.653301e+03
  2.352700e+02    7.623795e+03
  2.354696e+02    7.657347e+03
  2.356692e+02    7.607738e+03
  2.358689e+02    7.610742e+03
  2.360685e+02    7.602512e+03
  2.362682e+02    7.538238e+03
  2.364678e+02    7.570786e+03
  2.366674e+02    7.536831e+03
  2.368671e+02    7.537057e+03
  2.370667e+02    7.467583e+03
  2.372663e+02    7.519707e+03
  2.374660e+02    7.512663e+03
  2.376656e+02    7.433405e+03
  2.378652e+02    7.451857e+03
  2.380649e+02    7.483798e+03
  2.382645e+02    7.415026e+03
  2.384641e+02    7.377359e+03
  2.386638e+02    7.360560e+03
  2.388634e+02    7.397645e+03
  2.390630e+02    7.338004e+03
  2.392627e+02    7.294733e+03
  2.394623e+02    7.324399e+03
  2.396619e+02    7.298484e+03
  2.398616e+02    7.196189e+03
  2.400612e+02    7.260347e+03
  2.402609e+02    7.241914e+03
  2.404605e+02    7.227235e+03
  2.406601e+02    7.246298e+03
  2.408598e+02    7.234915e+03
  2.410594e+02    7.212492e+03
  2.412590e+02    7.140858e+03
  2.414587e+02    7.206361e+03
  2.416583e+02    7.176491e+03
  2.418579e+02    7.135627e+03
  2.420576e+02    7.128573e+03
  2.422572e+02    7.179813e+03
  2.424568e+02    7.125263e+03
  2.426565e+02    7.102855e+03
  2.428561e+02    7.093089e+03
  2.430557e+02    7.154734e+03
  2.432554e+02    7.124705e+03
  2.434550e+02    7.262627e+03
  2.436546e+02    7.120753e+03
  2.438543e+02    7.148842e+03
  2.440539e+02    7.091354e+03
  2.442536e+02    7.150509e+03
  2.444532e+02    6.941166e+03
  2.446528e+02    7.103168e+03
  2.448525e+02    7.178159e+03
  2.450521e+02    7.214325e+03
  2.452517e+02    7.280667e+03
  2.454514e+02    7.280884e+03
  2.456510e+02    7.231091e+03
  2.458506e+02    7.271015e+03
  2.460503e+02    7.328530e+03
  2.462499e+02    7.323086e+03
  2.464495e+02    7.288201e+03
  2.466492e+02    7.280964e+03
  2.468488e+02    7.366934e+03
  2.470484e+02    7.340141e+03
  2.472481e+02    7.321634e+03
  2.474477e+02    7.370089e+03
  2.476474e+02    7.380313e+03
  2.478470e+02    7.400793e+03
  2.480466e+02    7.432979e+03
  2.482463e+02    7.414623e+03
  2.484459e+02    7.423582e+03
  2.486455e+02    7.461531e+03
  2.488452e+02    7.429531e+03
  2.490448e+02    7.421517e+03
  2.492444e+02    7.404916e+03
  2.494441e+02    7.357772e+03
  2.496437e+02    7.288955e+03
  2.498433e+02    7.231141e+03
  2.500430e+02    7.158405e+03
  2.502426e+02    7.143152e+03
  2.504422e+02    7.089085e+03
  2.506419e+02    6.994338e+03
  2.508415e+02    6.908289e+03
  2.510411e+02    6.880929e+03
  2.512408e+02    6.824725e+03
  2.514404e+02    6.791728e+03
  2.516401e+02    6.707195e+03
  2.518397e+02    6.630342e+03
  2.520393e+02    6.545068e+03
  2.522390e+02    6.473408e+03
  2.524386e+02    6.377315e+03
  2.526382e+02    6.318542e+03
  2.528379e+02    6.230075e+03
  2.530375e+02    6.646095e+03
  2.532371e+02    9.432652e+03
  2.534368e+02    1.035491e+04
  2.536364e+02    1.017798e+04
  2.538360e+02    1.000764e+04
  2.540357e+02    9.844812e+03
  2.542353e+02    9.681773e+03
  2.544349e+02    9.524117e+03
  2.546346e+02    9.368620e+03
  2.548342e+02    9.225188e+03
  2.550339e+02    9.085608e+03
  2.552335e+02    8.948315e+03
  2.554331e+02    8.821738e+03
  2.556328e+02    8.694451e+03
  2.558324e+02    8.573975e+03
  2.560320e+02    8.455105e+03
  2.562317e+02    8.342032e+03
  2.564313e+02    8.240495e+03
  2.566309e+02    8.136994e+03
  2.568306e+02    8.038598e+03
  2.570302e+02    7.937027e+03
  2.572298e+02    7.846842e+03
  2.574295e+02    7.752508e+03
  2.576291e+02    7.665231e+03
  2.578287e+02    7.583170e+03
  2.580284e+02    7.499249e+03
  2.582280e+02    7.421375e+03
  2.584276e+02    7.344708e+03
  2.586273e+02    7.268199e+03
  2.588269e+02    7.197877e+03
  2.590266e+02    7.131732e+03
  2.592262e+02    7.063863e+03
  2.594258e+02    7.002526e+03
  2.596255e+02    6.935884e+03
  2.598251e+02    6.877303e+03
  2.600247e+02    6.812924e+03
  2.602244e+02    6.751694e+03
  2.604240e+02    6.688473e+03
  2.606236e+02    6.624223e+03
  2.608233e+02    6.564869e+03
  2.610229e+02    6.499185e+03
  2.612225e+02    6.431438e+03
  2.614222e+02    6.363309e+03
  2.616218e+02    6.289087e+03
  2.618214e+02    6.210345e+03
  2.620211e+02    6.131243e+03
  2.622207e+02    6.047067e+03
  2.624203e+02    5.963431e+03
  2.626200e+02    5.869469e+03
  2.628196e+02    5.773458e+03
  2.630193e+02    5.675285e+03
  2.632189e+02    5.571356e+03
  2.634185e+02    5.464409e+03
  2.636182e+02    5.357528e+03
  2.638178e+02    5.251073e+03
  2.640174e+02    5.141673e+03
  2.642171e+02    5.028480e+03
  2.644167e+02    4.917812e+03
  2.646163e+02    4.802610e+03
  2.648160e+02    4.691519e+03
  2.650156e+02    4.584717e+03
  2.652152e+02    4.472596e+03
  2.654149e+02    4.371122e+03
  2.656145e+02    4.266272e+03
  2.658141e+02    4.167796e+03
  2.660138e+02    4.069208e+03
  2.662134e+02    3.976276e+03
  2.664131e+02    3.886333e+03
  2.666127e+02    3.801160e+03
  2.668123e+02    3.720641e+03
  2.670120e+02    3.644674e+03
  2.672116e+02    3.572212e+03
  2.674112e+02    3.503245e+03
  2.676109e+02    3.438391e+03
  2.678105e+02    3.371884e+03
  2.680101e+02    3.314767e+03
  2.682098e+02    3.260661e+03
  2.684094e+02    3.207147e+03
  2.686090e+02    3.156442e+03
  2.688087e+02    3.194203e+03
  2.690083e+02    3.194726e+03
  2.692079e+02    3.181981e+03
  2.694076e+02    3.289200e+03
  2.696072e+02    3.352807e+03
  2.698068e+02    3.386911e+03
  2.700065e+02    3.407609e+03
  2.702061e+02    3.418805e+03
  2.704058e+02    3.430804e+03
  2.706054e+02    3.439121e+03
  2.708050e+02    3.442663e+03
  2.710047e+02    3.444095e+03
  2.712043e+02    3.443109e+03
  2.714039e+02    3.437340e+03
  2.716036e+02    3.429786e+03
  2.718032e+02    3.425041e+03
  2.720028e+02    3.419400e+03
  2.722025e+02    3.403021e+03
  2.724021e+02    3.388327e+03
  2.726017e+02    3.372153e+03
  2.728014e+02    3.356139e+03
  2.730010e+02    3.331666e+03
  2.732006e+02    3.308941e+03
  2.734003e+02    3.281845e+03
  2.735999e+02    3.256539e+03
  2.737996e+02    3.223982e+03
  2.739992e+02    3.193219e+03
  2.741988e+02    3.160378e+03
  2.743985e+02    3.129700e+03
  2.745981e+02    3.089555e+03
  2.747977e+02    3.046726e+03
  2.749974e+02    3.013561e+03
  2.751970e+02    2.968389e+03
  2.753966e+02    2.950470e+03
  2.755963e+02    2.917087e+03
  2.757959e+02    2.875200e+03
  2.759955e+02    2.831043e+03
  2.761952e+02    2.787936e+03
  2.763948e+02    2.741812e+03
  2.765944e+02    2.695442e+03
  2.767941e+02    2.649510e+03
  2.769937e+02    2.601863e+03
  2.771933e+02    2.557313e+03
  2.773930e+02    2.507413e+03
  2.775926e+02    2.458298e+03
  2.777923e+02    2.412899e+03
  2.779919e+02    2.365234e+03
  2.781915e+02    2.317355e+03
  2.783912e+02    2.273279e+03
  2.785908e+02    2.228716e+03
  2.787904e+02    2.186150e+03
  2.789901e+02    2.144475e+03
  2.791897e+02    2.103500e+03
  2.793893e+02    2.061333e+03
  2.795890e+02    2.023419e+03
  2.797886e+02    1.982822e+03
  2.799882e+02    1.943092e+03
  2.801879e+02    1.907779e+03
  2.803875e+02    1.871715e+03
  2.805871e+02    1.834792e+03
  2.807868e+02    1.800881e+03
  2.809864e+02    1.764160e+03
  2.811861e+02    1.731167e+03
  2.813857e+02    1.701089e+03
  2.815853e+02    1.667594e+03
  2.817850e+02    1.640602e+03
  2.819846e+02    1.610138e+03
  2.821842e+02    1.579859e+03
  2.823839e+02    1.554229e+03
  2.825835e+02    1.526237e+03
  2.827831e+02    1.501430e+03
  2.829828e+02    1.476121e+03
  2.831824e+02    1.452151e+03
  2.833820e+02    1.427114e+03
  2.835817e+02    1.403949e+03
  2.837813e+02    1.381776e+03
  2.839809e+02    1.356722e+03
  2.841806e+02    1.334672e+03
  2.843802e+02    1.310803e+03
  2.845798e+02    1.284038e+03
  2.847795e+02    1.261663e+03
  2.849791e+02    1.233959e+03
  2.851788e+02    1.207127e+03
  2.853784e+02    1.177107e+03
  2.855780e+02    1.149379e+03
  2.857777e+02    1.121241e+03
  2.859773e+02    1.090993e+03
  2.861769e+02    1.060036e+03
  2.863766e+02    1.032617e+03
  2.865762e+02    1.000379e+03
  2.867758e+02    9.713226e+02
  2.869755e+02    9.430634e+02
  2.871751e+02    9.127137e+02
  2.873747e+02    8.843507e+02
  2.875744e+02    8.574964e+02
  2.877740e+02    8.316415e+02
  2.879736e+02    8.076458e+02
  2.881733e+02    7.850427e+02
  2.883729e+02    7.585771e+02
  2.885725e+02    7.395308e+02
  2.887722e+02    7.178787e+02
  2.889718e+02    6.949588e+02
  2.891715e+02    6.785992e+02
  2.893711e+02    6.594952e+02
  2.895707e+02    6.426078e+02
  2.897704e+02    6.252668e+02
  2.899700e+02    6.091835e+02
  2.901696e+02    5.927003e+02
  2.903693e+02    5.765439e+02
  2.905689e+02    5.625616e+02
  2.907685e+02    5.463060e+02
  2.909682e+02    5.321877e+02
  2.911678e+02    5.183238e+02
  2.913674e+02    5.018823e+02
  2.915671e+02    4.884745e+02
  2.917667e+02    4.728371e+02
  2.919663e+02    4.594070e+02
  2.921660e+02    4.477324e+02
  2.923656e+02    4.331040e+02
  2.925653e+02    4.199505e+02
  2.927649e+02    4.108083e+02
  2.929645e+02    3.901396e+02
  2.931642e+02    3.763861e+02
  2.933638e+02    3.556949e+02
